% Pose without folding and reset (log_20240219_145344.784/log_pose_abs.txt)
% 1 	Time (sec)
% 2,3 	Position x,y (m)
% 4 	heading (rad)
% 5 	Driven distance (m) - signed
% 6 	Turned angle (rad) - signed
1708350825.5169 0.000 0.000 0.0000 0.000 0.0000
1708350825.5252 0.000 0.000 0.0000 0.000 0.0000
1708350825.5325 0.000 0.000 0.0000 0.000 0.0000
1708350825.5401 0.000 0.000 0.0000 0.000 0.0000
1708350825.5482 0.000 0.000 0.0000 0.000 0.0000
1708350825.5563 0.000 0.000 0.0000 0.000 0.0000
1708350825.5649 0.000 0.000 0.0000 0.000 0.0000
1708350825.5725 0.000 0.000 0.0000 0.000 0.0000
1708350825.5804 0.000 0.000 0.0000 0.000 0.0000
1708350825.5890 0.000 0.000 0.0000 0.000 0.0000
1708350825.5978 0.000 0.000 0.0000 0.000 0.0000
1708350825.6052 0.000 0.000 0.0000 0.000 0.0000
1708350825.6121 0.000 0.000 0.0000 0.000 0.0000
1708350825.6210 0.000 0.000 0.0000 0.000 0.0000
1708350825.6306 0.000 0.000 0.0000 0.000 0.0000
1708350825.6371 0.000 0.000 0.0000 0.000 0.0000
1708350825.6443 0.000 0.000 0.0000 0.000 0.0000
1708350825.6529 0.001 0.000 0.0047 0.001 0.0047
1708350825.6602 0.002 0.000 0.0062 0.002 0.0062
1708350825.6720 0.003 0.000 0.0047 0.003 0.0047
1708350825.6770 0.004 0.000 0.0047 0.004 0.0047
1708350825.6841 0.005 0.000 0.0047 0.005 0.0047
1708350825.6926 0.006 0.000 0.0047 0.006 0.0047
1708350825.7004 0.007 0.000 0.0031 0.007 0.0031
1708350825.7090 0.008 0.000 0.0047 0.008 0.0047
1708350825.7165 0.010 0.000 0.0031 0.010 0.0031
1708350825.7247 0.012 0.000 0.0031 0.012 0.0031
1708350825.7325 0.014 0.000 0.0047 0.014 0.0047
1708350825.7417 0.016 0.000 0.0047 0.016 0.0047
1708350825.7485 0.019 0.000 0.0016 0.019 0.0016
1708350825.7570 0.021 0.000 0.0016 0.021 0.0016
1708350825.7643 0.023 0.000 0.0047 0.023 0.0047
1708350825.7749 0.026 0.000 0.0031 0.026 0.0031
1708350825.7810 0.028 0.000 0.0000 0.028 0.0000
1708350825.7881 0.031 0.000 0.0000 0.031 0.0000
1708350825.7964 0.032 0.000 0.0000 0.032 0.0000
1708350825.8050 0.035 0.000 0.0000 0.035 0.0000
1708350825.8122 0.038 0.000 0.0031 0.038 0.0031
1708350825.8205 0.041 0.000 0.0031 0.041 0.0031
1708350825.8290 0.044 0.000 0.0016 0.044 0.0016
1708350825.8364 0.045 0.000 0.0000 0.045 0.0000
1708350825.8447 0.048 0.000 -0.0016 0.048 -0.0016
1708350825.8524 0.051 0.000 -0.0016 0.051 -0.0016
1708350825.8607 0.053 0.000 0.0016 0.053 0.0016
1708350825.8691 0.056 0.000 0.0016 0.056 0.0016
1708350825.8765 0.058 0.000 -0.0031 0.058 -0.0031
1708350825.8847 0.061 0.000 -0.0062 0.061 -0.0062
1708350825.8927 0.063 0.000 -0.0016 0.063 -0.0016
1708350825.9005 0.065 0.000 0.0016 0.065 0.0016
1708350825.9087 0.068 0.000 -0.0016 0.068 -0.0016
1708350825.9161 0.071 0.000 -0.0062 0.071 -0.0062
1708350825.9245 0.073 0.000 -0.0047 0.073 -0.0047
1708350825.9327 0.075 0.000 0.0016 0.075 0.0016
1708350825.9408 0.078 0.000 0.0031 0.078 0.0031
1708350825.9486 0.080 0.000 -0.0016 0.080 -0.0016
1708350825.9562 0.082 0.000 -0.0062 0.082 -0.0062
1708350825.9644 0.084 0.000 -0.0047 0.084 -0.0047
1708350825.9728 0.087 0.000 0.0016 0.087 0.0016
1708350825.9810 0.089 0.000 0.0031 0.089 0.0031
1708350825.9891 0.092 0.000 0.0000 0.092 0.0000
1708350825.9969 0.094 0.000 -0.0047 0.094 -0.0047
1708350826.0051 0.097 0.000 -0.0031 0.097 -0.0031
1708350826.0129 0.099 0.000 0.0031 0.099 0.0031
1708350826.0207 0.101 0.000 0.0047 0.101 0.0047
1708350826.0282 0.104 0.000 0.0000 0.104 0.0000
1708350826.0363 0.106 0.000 -0.0047 0.106 -0.0047
1708350826.0445 0.108 0.000 0.0000 0.108 0.0000
1708350826.0528 0.110 0.000 0.0047 0.110 0.0047
1708350826.0633 0.113 0.000 0.0062 0.113 0.0062
1708350826.0683 0.115 0.000 0.0000 0.115 0.0000
1708350826.0832 0.118 0.000 -0.0047 0.118 -0.0047
1708350826.0852 0.121 0.000 -0.0031 0.121 -0.0031
1708350826.0924 0.123 0.000 0.0031 0.123 0.0031
1708350826.1010 0.123 0.000 0.0047 0.123 0.0047
1708350826.1089 0.124 0.000 0.0031 0.124 0.0031
1708350826.1181 0.126 0.000 -0.0016 0.126 -0.0016
1708350826.1250 0.130 0.000 -0.0047 0.130 -0.0047
1708350826.1324 0.132 0.000 -0.0031 0.132 -0.0031
1708350826.1404 0.134 0.000 0.0000 0.134 0.0000
1708350826.1490 0.135 0.000 0.0000 0.135 0.0000
1708350826.1565 0.137 0.000 -0.0016 0.137 -0.0016
1708350826.1651 0.140 0.000 -0.0016 0.140 -0.0016
1708350826.1739 0.142 0.000 -0.0016 0.142 -0.0016
1708350826.1803 0.144 0.000 -0.0000 0.144 0.0000
1708350826.1888 0.146 0.000 -0.0000 0.146 0.0000
1708350826.1962 0.148 0.000 -0.0016 0.148 -0.0016
1708350826.2047 0.151 0.000 -0.0047 0.151 -0.0047
1708350826.2124 0.153 0.000 -0.0047 0.153 -0.0047
1708350826.2208 0.155 0.000 0.0016 0.155 0.0016
1708350826.2294 0.157 0.000 -0.0000 0.157 -0.0000
1708350826.2365 0.159 0.000 -0.0031 0.159 -0.0031
1708350826.2449 0.162 0.000 -0.0031 0.162 -0.0031
1708350826.2524 0.164 0.000 0.0016 0.164 0.0016
1708350826.2601 0.166 0.000 0.0031 0.166 0.0031
1708350826.2683 0.168 0.000 -0.0000 0.168 -0.0000
1708350826.2772 0.171 0.000 -0.0047 0.171 -0.0047
1708350826.2846 0.173 -0.000 -0.0016 0.173 -0.0016
1708350826.2931 0.175 -0.000 0.0031 0.175 0.0031
1708350826.3020 0.178 0.000 0.0031 0.178 0.0031
1708350826.3091 0.180 0.000 0.0016 0.180 0.0016
1708350826.3170 0.183 0.000 0.0031 0.183 0.0031
1708350826.3248 0.186 0.000 0.0093 0.186 0.0093
1708350826.3329 0.187 0.000 0.0140 0.187 0.0140
1708350826.3401 0.190 0.000 0.0124 0.190 0.0124
1708350826.3486 0.193 0.000 0.0140 0.193 0.0140
1708350826.3565 0.195 0.000 0.0202 0.195 0.0202
1708350826.3642 0.197 0.000 0.0233 0.197 0.0233
1708350826.3733 0.200 0.000 0.0217 0.200 0.0217
1708350826.3803 0.202 0.000 0.0186 0.202 0.0186
1708350826.3959 0.204 0.000 0.0202 0.204 0.0202
1708350826.3980 0.207 0.000 0.0264 0.207 0.0264
1708350826.4047 0.209 0.000 0.0326 0.209 0.0326
1708350826.4123 0.209 0.000 0.0295 0.209 0.0295
1708350826.4205 0.210 0.001 0.0202 0.210 0.0202
1708350826.4290 0.213 0.001 0.0093 0.213 0.0093
1708350826.4365 0.216 0.001 0.0062 0.216 0.0062
1708350826.4447 0.218 0.001 0.0062 0.218 0.0062
1708350826.4526 0.220 0.001 0.0062 0.220 0.0062
1708350826.4607 0.222 0.001 -0.0000 0.222 0.0000
1708350826.4682 0.224 0.001 -0.0109 0.224 -0.0109
1708350826.4766 0.226 0.001 -0.0186 0.226 -0.0186
1708350826.4848 0.228 0.001 -0.0202 0.228 -0.0202
1708350826.4921 0.230 0.000 -0.0264 0.230 -0.0264
1708350826.5010 0.233 0.000 -0.0357 0.233 -0.0357
1708350826.5083 0.235 0.000 -0.0435 0.235 -0.0435
1708350826.5166 0.237 0.000 -0.0497 0.237 -0.0497
1708350826.5250 0.239 0.000 -0.0543 0.239 -0.0543
1708350826.5321 0.242 -0.000 -0.0605 0.242 -0.0605
1708350826.5404 0.244 -0.000 -0.0683 0.244 -0.0683
1708350826.5482 0.246 -0.000 -0.0776 0.246 -0.0776
1708350826.5565 0.248 -0.001 -0.0838 0.248 -0.0838
1708350826.5648 0.251 -0.001 -0.0885 0.251 -0.0885
1708350826.5754 0.254 -0.001 -0.0947 0.254 -0.0947
1708350826.5805 0.256 -0.001 -0.1024 0.256 -0.1024
1708350826.5898 0.258 -0.001 -0.1087 0.258 -0.1087
1708350826.5967 0.260 -0.002 -0.1071 0.260 -0.1071
1708350826.6049 0.263 -0.002 -0.1102 0.263 -0.1102
1708350826.6130 0.265 -0.002 -0.1195 0.265 -0.1195
1708350826.6208 0.267 -0.003 -0.1242 0.267 -0.1242
1708350826.6288 0.270 -0.003 -0.1242 0.270 -0.1242
1708350826.6371 0.273 -0.003 -0.1242 0.273 -0.1242
1708350826.6450 0.274 -0.003 -0.1304 0.275 -0.1304
1708350826.6522 0.276 -0.004 -0.1350 0.277 -0.1350
1708350826.6603 0.279 -0.004 -0.1335 0.279 -0.1335
1708350826.6681 0.281 -0.004 -0.1319 0.282 -0.1319
1708350826.6770 0.284 -0.005 -0.1350 0.284 -0.1350
1708350826.6842 0.286 -0.005 -0.1428 0.286 -0.1428
1708350826.6927 0.289 -0.005 -0.1428 0.289 -0.1428
1708350826.7009 0.291 -0.006 -0.1366 0.291 -0.1366
1708350826.7089 0.293 -0.006 -0.1382 0.293 -0.1382
1708350826.7167 0.296 -0.006 -0.1413 0.296 -0.1413
1708350826.7245 0.298 -0.007 -0.1413 0.299 -0.1413
1708350826.7323 0.301 -0.007 -0.1397 0.301 -0.1397
1708350826.7402 0.302 -0.007 -0.1366 0.303 -0.1366
1708350826.7483 0.305 -0.008 -0.1350 0.305 -0.1350
1708350826.7568 0.308 -0.008 -0.1366 0.308 -0.1366
1708350826.7642 0.310 -0.008 -0.1397 0.311 -0.1397
1708350826.7743 0.313 -0.009 -0.1397 0.313 -0.1397
1708350826.7806 0.315 -0.009 -0.1335 0.315 -0.1335
1708350826.7890 0.317 -0.009 -0.1304 0.318 -0.1304
1708350826.7970 0.319 -0.010 -0.1366 0.320 -0.1366
1708350826.8043 0.322 -0.010 -0.1413 0.322 -0.1413
1708350826.8123 0.324 -0.010 -0.1413 0.325 -0.1413
1708350826.8208 0.327 -0.011 -0.1335 0.327 -0.1335
1708350826.8283 0.329 -0.011 -0.1273 0.329 -0.1273
1708350826.8370 0.331 -0.011 -0.1319 0.332 -0.1319
1708350826.8442 0.334 -0.012 -0.1397 0.335 -0.1397
1708350826.8524 0.336 -0.012 -0.1382 0.337 -0.1382
1708350826.8609 0.338 -0.012 -0.1319 0.339 -0.1319
1708350826.8681 0.341 -0.012 -0.1304 0.341 -0.1304
1708350826.8771 0.343 -0.013 -0.1335 0.344 -0.1335
1708350826.8848 0.346 -0.013 -0.1382 0.346 -0.1382
1708350826.8930 0.348 -0.014 -0.1350 0.349 -0.1350
1708350826.9003 0.350 -0.014 -0.1319 0.351 -0.1319
1708350826.9081 0.353 -0.014 -0.1304 0.354 -0.1304
1708350826.9164 0.355 -0.014 -0.1335 0.356 -0.1335
1708350826.9242 0.357 -0.015 -0.1397 0.358 -0.1397
1708350826.9330 0.360 -0.015 -0.1382 0.361 -0.1382
1708350826.9401 0.362 -0.015 -0.1335 0.363 -0.1335
1708350826.9484 0.365 -0.016 -0.1319 0.366 -0.1319
1708350826.9569 0.367 -0.016 -0.1350 0.368 -0.1350
1708350826.9651 0.369 -0.016 -0.1413 0.370 -0.1413
1708350826.9728 0.372 -0.017 -0.1397 0.373 -0.1397
1708350826.9806 0.374 -0.017 -0.1319 0.375 -0.1319
1708350826.9890 0.376 -0.017 -0.1319 0.377 -0.1319
1708350826.9962 0.378 -0.018 -0.1366 0.379 -0.1366
1708350827.0041 0.381 -0.018 -0.1428 0.382 -0.1428
1708350827.0132 0.383 -0.018 -0.1382 0.385 -0.1382
1708350827.0202 0.386 -0.019 -0.1319 0.387 -0.1319
1708350827.0284 0.388 -0.019 -0.1319 0.389 -0.1319
1708350827.0366 0.390 -0.019 -0.1366 0.392 -0.1366
1708350827.0451 0.393 -0.020 -0.1397 0.394 -0.1397
1708350827.0529 0.395 -0.020 -0.1366 0.397 -0.1366
1708350827.0655 0.398 -0.020 -0.1319 0.399 -0.1319
1708350827.0697 0.400 -0.021 -0.1304 0.401 -0.1304
1708350827.0767 0.402 -0.021 -0.1335 0.404 -0.1335
1708350827.0849 0.404 -0.021 -0.1350 0.405 -0.1350
1708350827.0923 0.406 -0.021 -0.1319 0.407 -0.1319
1708350827.1001 0.409 -0.022 -0.1304 0.410 -0.1304
1708350827.1083 0.411 -0.022 -0.1319 0.413 -0.1319
1708350827.1169 0.414 -0.022 -0.1350 0.415 -0.1350
1708350827.1243 0.415 -0.023 -0.1350 0.417 -0.1350
1708350827.1326 0.418 -0.023 -0.1319 0.420 -0.1319
1708350827.1409 0.421 -0.023 -0.1304 0.422 -0.1304
1708350827.1487 0.423 -0.024 -0.1319 0.425 -0.1319
1708350827.1568 0.425 -0.024 -0.1335 0.427 -0.1335
1708350827.1651 0.428 -0.024 -0.1335 0.429 -0.1335
1708350827.1736 0.430 -0.025 -0.1304 0.432 -0.1304
1708350827.1807 0.433 -0.025 -0.1304 0.435 -0.1304
1708350827.1891 0.435 -0.025 -0.1335 0.437 -0.1335
1708350827.1962 0.437 -0.026 -0.1350 0.439 -0.1350
1708350827.2046 0.439 -0.026 -0.1319 0.441 -0.1319
1708350827.2122 0.442 -0.026 -0.1304 0.444 -0.1304
1708350827.2208 0.445 -0.027 -0.1335 0.447 -0.1335
1708350827.2295 0.447 -0.027 -0.1350 0.449 -0.1350
1708350827.2364 0.449 -0.027 -0.1350 0.451 -0.1350
1708350827.2441 0.451 -0.027 -0.1335 0.453 -0.1335
1708350827.2524 0.454 -0.028 -0.1335 0.456 -0.1335
1708350827.2608 0.457 -0.028 -0.1350 0.458 -0.1350
1708350827.2686 0.459 -0.028 -0.1366 0.461 -0.1366
1708350827.2764 0.460 -0.029 -0.1350 0.462 -0.1350
1708350827.2849 0.463 -0.029 -0.1366 0.465 -0.1366
1708350827.2927 0.466 -0.029 -0.1366 0.468 -0.1366
1708350827.3009 0.468 -0.030 -0.1335 0.470 -0.1335
1708350827.3082 0.470 -0.030 -0.1319 0.472 -0.1319
1708350827.3163 0.472 -0.030 -0.1350 0.474 -0.1350
1708350827.3243 0.475 -0.031 -0.1382 0.477 -0.1382
1708350827.3324 0.478 -0.031 -0.1382 0.480 -0.1382
1708350827.3410 0.480 -0.031 -0.1335 0.482 -0.1335
1708350827.3482 0.482 -0.032 -0.1319 0.485 -0.1319
1708350827.3565 0.484 -0.032 -0.1350 0.486 -0.1350
1708350827.3645 0.487 -0.032 -0.1382 0.489 -0.1382
1708350827.3735 0.489 -0.033 -0.1382 0.492 -0.1382
1708350827.3806 0.492 -0.033 -0.1350 0.494 -0.1350
1708350827.3885 0.494 -0.033 -0.1304 0.496 -0.1304
1708350827.3969 0.496 -0.034 -0.1319 0.498 -0.1319
1708350827.4044 0.498 -0.034 -0.1366 0.501 -0.1366
1708350827.4129 0.501 -0.034 -0.1382 0.503 -0.1382
1708350827.4211 0.504 -0.035 -0.1350 0.506 -0.1350
1708350827.4290 0.506 -0.035 -0.1304 0.508 -0.1304
1708350827.4368 0.508 -0.035 -0.1319 0.511 -0.1319
1708350827.4449 0.510 -0.035 -0.1350 0.513 -0.1350
1708350827.4523 0.513 -0.036 -0.1366 0.516 -0.1366
1708350827.4602 0.516 -0.036 -0.1350 0.518 -0.1350
1708350827.4683 0.518 -0.036 -0.1319 0.520 -0.1319
1708350827.4768 0.520 -0.037 -0.1319 0.522 -0.1319
1708350827.4846 0.522 -0.037 -0.1350 0.525 -0.1350
1708350827.4928 0.525 -0.037 -0.1350 0.528 -0.1350
1708350827.5001 0.528 -0.038 -0.1335 0.530 -0.1335
1708350827.5087 0.529 -0.038 -0.1319 0.532 -0.1319
1708350827.5167 0.532 -0.038 -0.1335 0.534 -0.1335
1708350827.5247 0.534 -0.039 -0.1335 0.537 -0.1335
1708350827.5328 0.537 -0.039 -0.1335 0.540 -0.1335
1708350827.5407 0.540 -0.039 -0.1350 0.542 -0.1350
1708350827.5491 0.541 -0.040 -0.1335 0.544 -0.1335
1708350827.5567 0.543 -0.040 -0.1319 0.546 -0.1319
1708350827.5649 0.546 -0.040 -0.1319 0.549 -0.1319
1708350827.5729 0.549 -0.041 -0.1335 0.552 -0.1335
1708350827.5809 0.552 -0.041 -0.1350 0.554 -0.1350
1708350827.5891 0.553 -0.041 -0.1366 0.556 -0.1366
1708350827.5964 0.555 -0.042 -0.1350 0.558 -0.1350
1708350827.6048 0.558 -0.042 -0.1319 0.561 -0.1319
1708350827.6130 0.561 -0.042 -0.1304 0.564 -0.1304
1708350827.6203 0.563 -0.043 -0.1350 0.566 -0.1350
1708350827.6291 0.565 -0.043 -0.1382 0.568 -0.1382
1708350827.6363 0.567 -0.043 -0.1350 0.570 -0.1350
1708350827.6597 0.570 -0.043 -0.1319 0.573 -0.1319
1708350827.6632 0.572 -0.044 -0.1319 0.575 -0.1319
1708350827.6673 0.575 -0.044 -0.1366 0.578 -0.1366
1708350827.6693 0.578 -0.045 -0.1413 0.581 -0.1413
1708350827.6762 0.579 -0.045 -0.1397 0.582 -0.1397
1708350827.6848 0.578 -0.045 -0.1350 0.581 -0.1350
1708350827.6923 0.580 -0.045 -0.1335 0.583 -0.1335
1708350827.7004 0.582 -0.045 -0.1319 0.585 -0.1319
1708350827.7089 0.584 -0.045 -0.1288 0.587 -0.1288
1708350827.7164 0.586 -0.046 -0.1288 0.589 -0.1288
1708350827.7243 0.588 -0.046 -0.1304 0.591 -0.1304
1708350827.7327 0.590 -0.046 -0.1288 0.593 -0.1288
1708350827.7405 0.592 -0.046 -0.1226 0.595 -0.1226
1708350827.7488 0.593 -0.047 -0.1195 0.597 -0.1195
1708350827.7561 0.595 -0.047 -0.1211 0.599 -0.1211
1708350827.7644 0.597 -0.047 -0.1257 0.600 -0.1257
1708350827.7732 0.599 -0.047 -0.1257 0.602 -0.1257
1708350827.7806 0.601 -0.048 -0.1211 0.604 -0.1211
1708350827.7889 0.603 -0.048 -0.1180 0.607 -0.1180
1708350827.7963 0.605 -0.048 -0.1226 0.609 -0.1226
1708350827.8044 0.607 -0.048 -0.1242 0.610 -0.1242
1708350827.8129 0.609 -0.048 -0.1195 0.612 -0.1195
1708350827.8209 0.611 -0.049 -0.1180 0.614 -0.1180
1708350827.8289 0.613 -0.049 -0.1226 0.617 -0.1226
1708350827.8362 0.616 -0.049 -0.1226 0.619 -0.1226
1708350827.8443 0.618 -0.050 -0.1226 0.621 -0.1226
1708350827.8527 0.620 -0.050 -0.1242 0.623 -0.1242
1708350827.8601 0.622 -0.050 -0.1257 0.625 -0.1257
1708350827.8682 0.624 -0.050 -0.1273 0.628 -0.1273
1708350827.8761 0.627 -0.051 -0.1273 0.630 -0.1273
1708350827.8846 0.629 -0.051 -0.1273 0.633 -0.1273
1708350827.8927 0.632 -0.051 -0.1288 0.635 -0.1288
1708350827.9010 0.634 -0.052 -0.1304 0.638 -0.1304
1708350827.9086 0.637 -0.052 -0.1273 0.640 -0.1273
1708350827.9179 0.639 -0.052 -0.1273 0.642 -0.1273
1708350827.9249 0.641 -0.053 -0.1304 0.644 -0.1304
1708350827.9324 0.643 -0.053 -0.1335 0.647 -0.1335
1708350827.9404 0.646 -0.053 -0.1319 0.650 -0.1319
1708350827.9490 0.648 -0.054 -0.1288 0.652 -0.1288
1708350827.9568 0.650 -0.054 -0.1288 0.654 -0.1288
1708350827.9647 0.653 -0.054 -0.1304 0.656 -0.1304
1708350827.9738 0.656 -0.054 -0.1335 0.659 -0.1335
1708350827.9802 0.658 -0.055 -0.1335 0.662 -0.1335
1708350827.9886 0.661 -0.055 -0.1335 0.664 -0.1335
1708350827.9966 0.662 -0.055 -0.1319 0.666 -0.1319
1708350828.0048 0.665 -0.056 -0.1304 0.668 -0.1304
1708350828.0124 0.668 -0.056 -0.1319 0.671 -0.1319
1708350828.0208 0.670 -0.056 -0.1350 0.674 -0.1350
1708350828.0289 0.672 -0.057 -0.1350 0.676 -0.1350
1708350828.0371 0.674 -0.057 -0.1319 0.678 -0.1319
1708350828.0444 0.677 -0.057 -0.1288 0.681 -0.1288
1708350828.0528 0.680 -0.058 -0.1288 0.684 -0.1288
1708350828.0607 0.682 -0.058 -0.1319 0.686 -0.1319
1708350828.0692 0.684 -0.058 -0.1319 0.688 -0.1319
1708350828.0764 0.686 -0.059 -0.1288 0.690 -0.1288
1708350828.0843 0.689 -0.059 -0.1288 0.693 -0.1288
1708350828.0928 0.691 -0.059 -0.1319 0.695 -0.1319
1708350828.1003 0.694 -0.059 -0.1366 0.697 -0.1366
1708350828.1083 0.696 -0.060 -0.1350 0.700 -0.1350
1708350828.1167 0.698 -0.060 -0.1304 0.702 -0.1304
1708350828.1246 0.701 -0.060 -0.1304 0.705 -0.1304
1708350828.1335 0.703 -0.061 -0.1335 0.707 -0.1335
1708350828.1410 0.705 -0.061 -0.1366 0.709 -0.1366
1708350828.1481 0.707 -0.061 -0.1335 0.711 -0.1335
1708350828.1561 0.710 -0.062 -0.1304 0.714 -0.1304
1708350828.1645 0.712 -0.062 -0.1319 0.716 -0.1319
1708350828.1736 0.715 -0.062 -0.1366 0.719 -0.1366
1708350828.1805 0.717 -0.063 -0.1366 0.721 -0.1366
1708350828.1890 0.719 -0.063 -0.1319 0.724 -0.1319
1708350828.1968 0.722 -0.063 -0.1350 0.726 -0.1350
1708350828.2048 0.724 -0.064 -0.1382 0.728 -0.1382
1708350828.2121 0.726 -0.064 -0.1366 0.731 -0.1366
1708350828.2203 0.729 -0.064 -0.1335 0.733 -0.1335
1708350828.2291 0.731 -0.065 -0.1335 0.735 -0.1335
1708350828.2361 0.733 -0.065 -0.1366 0.738 -0.1366
1708350828.2444 0.736 -0.065 -0.1382 0.741 -0.1382
1708350828.2531 0.738 -0.066 -0.1350 0.743 -0.1350
1708350828.2605 0.740 -0.066 -0.1319 0.744 -0.1319
1708350828.2691 0.743 -0.066 -0.1319 0.747 -0.1319
1708350828.2775 0.746 -0.067 -0.1350 0.750 -0.1350
1708350828.2848 0.748 -0.067 -0.1366 0.753 -0.1366
1708350828.2928 0.750 -0.067 -0.1366 0.755 -0.1366
1708350828.3008 0.752 -0.067 -0.1350 0.756 -0.1350
1708350828.3091 0.754 -0.068 -0.1335 0.759 -0.1335
1708350828.3165 0.757 -0.068 -0.1335 0.762 -0.1335
1708350828.3252 0.760 -0.068 -0.1350 0.765 -0.1350
1708350828.3329 0.762 -0.069 -0.1366 0.767 -0.1366
1708350828.3403 0.764 -0.069 -0.1366 0.769 -0.1366
1708350828.3484 0.766 -0.069 -0.1335 0.771 -0.1335
1708350828.3568 0.769 -0.070 -0.1335 0.774 -0.1335
1708350828.3643 0.772 -0.070 -0.1366 0.777 -0.1366
1708350828.3732 0.774 -0.070 -0.1366 0.779 -0.1366
1708350828.3807 0.776 -0.071 -0.1366 0.781 -0.1366
1708350828.3890 0.778 -0.071 -0.1366 0.783 -0.1366
1708350828.3968 0.781 -0.071 -0.1350 0.786 -0.1350
1708350828.4041 0.784 -0.072 -0.1335 0.789 -0.1335
1708350828.4127 0.786 -0.072 -0.1350 0.791 -0.1350
1708350828.4209 0.788 -0.072 -0.1350 0.793 -0.1350
1708350828.4290 0.790 -0.073 -0.1335 0.795 -0.1335
1708350828.4368 0.793 -0.073 -0.1335 0.798 -0.1335
1708350828.4450 0.796 -0.073 -0.1335 0.801 -0.1335
1708350828.4524 0.798 -0.074 -0.1350 0.803 -0.1350
1708350828.4610 0.800 -0.074 -0.1350 0.805 -0.1350
1708350828.4690 0.802 -0.074 -0.1335 0.807 -0.1335
1708350828.4771 0.805 -0.075 -0.1335 0.810 -0.1335
1708350828.4845 0.808 -0.075 -0.1350 0.813 -0.1350
1708350828.4930 0.810 -0.075 -0.1366 0.815 -0.1366
1708350828.5005 0.811 -0.075 -0.1350 0.816 -0.1350
1708350828.5087 0.814 -0.076 -0.1350 0.819 -0.1350
1708350828.5168 0.817 -0.076 -0.1350 0.822 -0.1350
1708350828.5249 0.820 -0.077 -0.1350 0.825 -0.1350
1708350828.5324 0.822 -0.077 -0.1366 0.827 -0.1366
1708350828.5409 0.824 -0.077 -0.1366 0.829 -0.1366
1708350828.5482 0.826 -0.077 -0.1350 0.831 -0.1350
1708350828.5566 0.828 -0.078 -0.1335 0.834 -0.1335
1708350828.5648 0.831 -0.078 -0.1350 0.836 -0.1350
1708350828.5732 0.833 -0.078 -0.1350 0.839 -0.1350
1708350828.5806 0.835 -0.079 -0.1350 0.841 -0.1350
1708350828.5888 0.838 -0.079 -0.1350 0.843 -0.1350
1708350828.5970 0.841 -0.079 -0.1350 0.846 -0.1350
1708350828.6044 0.844 -0.080 -0.1350 0.849 -0.1350
1708350828.6126 0.846 -0.080 -0.1366 0.851 -0.1366
1708350828.6209 0.847 -0.080 -0.1366 0.852 -0.1366
1708350828.6281 0.850 -0.081 -0.1350 0.855 -0.1350
1708350828.6372 0.853 -0.081 -0.1319 0.858 -0.1319
1708350828.6442 0.855 -0.081 -0.1335 0.860 -0.1335
1708350828.6527 0.857 -0.082 -0.1350 0.862 -0.1350
1708350828.6607 0.859 -0.082 -0.1366 0.864 -0.1366
