% Pose without folding and reset (log_20240219_140258.941/log_pose_abs.txt)
% 1 	Time (sec)
% 2,3 	Position x,y (m)
% 4 	heading (rad)
% 5 	Driven distance (m) - signed
% 6 	Turned angle (rad) - signed
1708347779.4705 0.000 0.000 0.0000 0.000 0.0000
1708347779.4783 0.000 0.000 0.0000 0.000 0.0000
1708347779.4871 0.000 0.000 0.0000 0.000 0.0000
1708347779.4933 0.000 0.000 0.0000 0.000 0.0000
1708347779.5021 0.000 0.000 0.0000 0.000 0.0000
1708347779.5091 0.000 0.000 0.0000 0.000 0.0000
1708347779.5178 0.000 0.000 0.0000 0.000 0.0000
1708347779.5259 0.000 0.000 0.0000 0.000 0.0000
1708347779.5333 0.000 0.000 0.0000 0.000 0.0000
1708347779.5414 0.000 0.000 0.0000 0.000 0.0000
1708347779.5497 0.000 0.000 0.0000 0.000 0.0000
1708347779.5580 0.000 0.000 0.0000 0.000 0.0000
1708347779.5659 0.000 0.000 0.0000 0.000 0.0000
1708347779.5744 0.000 0.000 0.0000 0.000 0.0000
1708347779.5820 0.000 0.000 0.0000 0.000 0.0000
1708347779.5897 0.000 0.000 0.0000 0.000 0.0000
1708347779.5979 0.001 0.000 0.0000 0.001 0.0000
1708347779.6063 0.003 0.000 0.0031 0.003 0.0031
1708347779.6140 0.004 0.000 0.0047 0.004 0.0047
1708347779.6215 0.004 0.000 0.0047 0.004 0.0047
1708347779.6292 0.005 0.000 0.0031 0.005 0.0031
1708347779.6410 0.006 0.000 0.0047 0.006 0.0047
1708347779.6528 0.007 0.000 0.0047 0.007 0.0047
1708347779.6552 0.009 0.000 0.0031 0.009 0.0031
1708347779.6636 0.010 0.000 0.0047 0.010 0.0047
1708347779.6702 0.011 0.000 0.0047 0.011 0.0047
1708347779.6773 0.013 0.000 0.0062 0.013 0.0062
1708347779.6897 0.015 0.000 0.0062 0.015 0.0062
1708347779.6940 0.018 0.000 0.0047 0.018 0.0047
1708347779.7026 0.020 0.000 0.0047 0.020 0.0047
1708347779.7095 0.022 0.000 0.0047 0.022 0.0047
1708347779.7185 0.024 0.000 0.0047 0.024 0.0047
1708347779.7253 0.026 0.000 0.0062 0.026 0.0062
1708347779.7334 0.029 0.000 0.0031 0.029 0.0031
1708347779.7413 0.031 0.000 0.0031 0.031 0.0031
1708347779.7503 0.033 0.000 0.0031 0.033 0.0031
1708347779.7576 0.036 0.000 0.0031 0.036 0.0031
1708347779.7660 0.038 0.000 0.0031 0.038 0.0031
1708347779.7733 0.040 0.000 0.0031 0.040 0.0031
1708347779.7820 0.042 0.000 0.0047 0.042 0.0047
1708347779.7898 0.045 0.000 0.0031 0.045 0.0031
1708347779.7980 0.048 0.000 0.0031 0.048 0.0031
1708347779.8061 0.050 0.000 0.0016 0.050 0.0016
1708347779.8137 0.052 0.000 0.0016 0.052 0.0016
1708347779.8220 0.054 0.000 0.0031 0.054 0.0031
1708347779.8303 0.057 0.000 0.0031 0.057 0.0031
1708347779.8381 0.060 0.000 0.0016 0.060 0.0016
1708347779.8497 0.062 0.000 -0.0031 0.062 -0.0031
1708347779.8536 0.064 0.000 -0.0047 0.064 -0.0047
1708347779.8614 0.065 0.000 -0.0047 0.065 -0.0047
1708347779.8702 0.068 0.000 -0.0016 0.068 -0.0016
1708347779.8792 0.071 0.000 0.0000 0.071 0.0000
1708347779.8854 0.074 0.000 0.0000 0.074 0.0000
1708347779.8938 0.076 0.000 -0.0031 0.076 -0.0031
1708347779.9019 0.077 0.000 -0.0047 0.077 -0.0047
1708347779.9097 0.079 0.000 -0.0016 0.079 -0.0016
1708347779.9174 0.082 0.000 0.0016 0.082 0.0016
1708347779.9256 0.085 0.000 0.0000 0.085 0.0000
1708347779.9336 0.087 0.000 -0.0031 0.087 -0.0031
1708347779.9423 0.088 0.000 -0.0016 0.088 -0.0016
1708347779.9501 0.091 0.000 0.0000 0.091 0.0000
1708347779.9572 0.094 0.000 0.0031 0.094 0.0031
1708347779.9655 0.096 0.000 -0.0000 0.096 -0.0000
1708347779.9732 0.098 0.000 -0.0031 0.098 -0.0031
1708347779.9818 0.100 0.000 -0.0016 0.100 -0.0016
1708347779.9900 0.102 0.000 0.0016 0.102 0.0016
1708347779.9978 0.105 0.000 0.0016 0.105 0.0016
1708347780.0057 0.108 0.000 -0.0016 0.108 -0.0016
1708347780.0140 0.110 0.000 -0.0016 0.110 -0.0016
1708347780.0219 0.112 0.000 0.0031 0.112 0.0031
1708347780.0295 0.115 0.000 0.0047 0.115 0.0047
1708347780.0379 0.117 0.000 0.0031 0.117 0.0031
1708347780.0452 0.119 0.000 -0.0016 0.119 -0.0016
1708347780.0541 0.122 0.000 0.0016 0.122 0.0016
1708347780.0718 0.124 0.000 0.0062 0.124 0.0062
1708347780.0742 0.127 0.000 0.0078 0.127 0.0078
1708347780.0898 0.129 0.000 0.0031 0.129 0.0031
1708347780.0917 0.133 0.000 0.0000 0.133 0.0000
1708347780.1009 0.135 0.000 -0.0016 0.135 -0.0016
1708347780.1028 0.136 0.000 -0.0031 0.136 -0.0031
1708347780.1100 0.137 0.000 0.0000 0.137 0.0000
1708347780.1178 0.137 0.000 0.0062 0.137 0.0062
1708347780.1259 0.139 0.000 0.0078 0.139 0.0078
1708347780.1335 0.142 0.000 0.0062 0.142 0.0062
1708347780.1419 0.144 0.000 0.0031 0.144 0.0031
1708347780.1492 0.146 0.000 0.0031 0.146 0.0031
1708347780.1579 0.148 0.000 0.0047 0.148 0.0047
1708347780.1655 0.150 0.000 0.0047 0.150 0.0047
1708347780.1742 0.152 0.000 0.0031 0.152 0.0031
1708347780.1818 0.154 0.000 0.0016 0.154 0.0016
1708347780.1901 0.156 0.000 0.0000 0.156 0.0000
1708347780.1976 0.158 0.000 0.0047 0.158 0.0047
1708347780.2063 0.160 0.000 0.0047 0.160 0.0047
1708347780.2137 0.163 0.000 0.0031 0.163 0.0031
1708347780.2221 0.165 0.000 -0.0031 0.165 -0.0031
1708347780.2293 0.167 0.000 -0.0016 0.167 -0.0016
1708347780.2372 0.168 0.000 0.0016 0.168 0.0016
1708347780.2457 0.170 0.000 0.0000 0.170 0.0000
1708347780.2532 0.173 0.000 -0.0016 0.173 -0.0016
1708347780.2614 0.175 0.000 -0.0016 0.175 -0.0016
1708347780.2698 0.177 0.000 0.0000 0.177 0.0000
1708347780.2780 0.180 0.000 0.0016 0.180 0.0016
1708347780.2852 0.182 0.000 0.0016 0.182 0.0016
1708347780.2936 0.184 0.000 0.0000 0.184 0.0000
1708347780.3013 0.186 0.000 0.0000 0.186 0.0000
1708347780.3094 0.189 0.000 0.0016 0.189 0.0016
1708347780.3174 0.192 0.000 0.0016 0.192 0.0016
1708347780.3253 0.194 0.000 0.0000 0.194 0.0000
1708347780.3337 0.197 0.000 0.0000 0.197 0.0000
1708347780.3438 0.199 0.000 0.0016 0.199 0.0016
1708347780.3495 0.201 0.000 0.0047 0.201 0.0047
1708347780.3577 0.204 0.000 0.0047 0.204 0.0047
1708347780.3662 0.206 0.000 0.0047 0.206 0.0047
1708347780.3736 0.208 0.000 0.0016 0.208 0.0016
1708347780.3822 0.210 0.000 -0.0016 0.210 -0.0016
1708347780.3894 0.214 0.000 0.0016 0.214 0.0016
1708347780.3979 0.216 0.000 0.0062 0.216 0.0062
1708347780.4060 0.218 0.000 0.0047 0.218 0.0047
1708347780.4141 0.220 0.000 0.0000 0.220 0.0000
1708347780.4215 0.223 0.000 -0.0047 0.223 -0.0047
1708347780.4292 0.225 0.000 -0.0016 0.225 -0.0016
1708347780.4380 0.228 0.000 0.0031 0.228 0.0031
1708347780.4459 0.230 0.000 0.0031 0.230 0.0031
1708347780.4538 0.232 0.000 -0.0016 0.232 -0.0016
1708347780.4622 0.234 0.000 -0.0047 0.234 -0.0047
1708347780.4698 0.237 0.000 -0.0031 0.237 -0.0031
1708347780.4797 0.240 0.000 0.0031 0.240 0.0031
1708347780.4858 0.241 0.000 0.0078 0.241 0.0078
1708347780.4933 0.243 0.000 0.0062 0.243 0.0062
1708347780.5019 0.246 0.000 0.0000 0.246 0.0000
1708347780.5097 0.249 0.000 0.0000 0.249 0.0000
1708347780.5177 0.251 0.000 0.0016 0.251 0.0016
1708347780.5265 0.253 0.000 0.0047 0.253 0.0047
1708347780.5337 0.255 0.000 0.0031 0.255 0.0031
1708347780.5415 0.258 0.000 -0.0031 0.258 -0.0031
1708347780.5493 0.260 0.000 -0.0031 0.260 -0.0031
1708347780.5593 0.262 0.000 0.0016 0.262 0.0016
1708347780.5679 0.265 0.000 0.0047 0.265 0.0047
1708347780.5736 0.267 0.000 0.0016 0.267 0.0016
1708347780.5819 0.270 0.000 -0.0016 0.270 -0.0016
1708347780.5892 0.271 0.000 -0.0016 0.271 -0.0016
1708347780.5974 0.273 0.000 0.0016 0.273 0.0016
1708347780.6057 0.276 0.000 0.0031 0.276 0.0031
1708347780.6138 0.279 0.000 0.0000 0.279 0.0000
1708347780.6216 0.282 0.000 -0.0016 0.282 -0.0016
1708347780.6294 0.283 0.000 -0.0016 0.283 -0.0016
1708347780.6378 0.286 0.000 0.0000 0.286 0.0000
1708347780.6460 0.288 0.000 0.0016 0.288 0.0016
1708347780.6532 0.291 0.000 0.0016 0.291 0.0016
1708347780.6615 0.293 0.000 -0.0031 0.293 -0.0031
1708347780.6702 0.296 0.000 -0.0047 0.296 -0.0047
1708347780.6792 0.298 0.000 0.0000 0.298 0.0000
1708347780.6860 0.300 0.000 0.0047 0.300 0.0047
1708347780.6933 0.303 0.000 0.0016 0.303 0.0016
1708347780.7048 0.305 0.000 -0.0047 0.305 -0.0047
1708347780.7098 0.307 0.000 -0.0047 0.307 -0.0047
1708347780.7181 0.310 0.000 0.0016 0.310 0.0016
1708347780.7259 0.312 0.000 0.0047 0.312 0.0047
1708347780.7334 0.314 0.000 0.0000 0.314 0.0000
1708347780.7417 0.316 0.000 -0.0047 0.316 -0.0047
1708347780.7496 0.319 0.000 -0.0016 0.319 -0.0016
1708347780.7576 0.322 0.000 0.0047 0.322 0.0047
1708347780.7660 0.324 0.000 0.0016 0.324 0.0016
1708347780.7735 0.326 0.000 -0.0016 0.326 -0.0016
1708347780.7813 0.329 0.000 -0.0031 0.329 -0.0031
1708347780.7893 0.331 0.000 0.0000 0.331 0.0000
1708347780.7975 0.333 0.000 0.0016 0.333 0.0016
1708347780.8076 0.336 0.000 0.0016 0.336 0.0016
1708347780.8139 0.338 0.000 -0.0016 0.338 -0.0016
1708347780.8221 0.341 0.000 -0.0016 0.341 -0.0016
1708347780.8299 0.342 0.000 0.0000 0.342 0.0000
1708347780.8378 0.344 0.000 0.0000 0.344 0.0000
1708347780.8459 0.347 0.000 0.0000 0.347 0.0000
1708347780.8541 0.350 0.000 -0.0016 0.350 -0.0016
1708347780.8618 0.353 0.000 -0.0031 0.353 -0.0031
1708347780.8700 0.354 0.000 -0.0031 0.354 -0.0031
1708347780.8778 0.356 0.000 0.0016 0.356 0.0016
1708347780.8852 0.359 0.000 0.0031 0.359 0.0031
1708347780.8934 0.362 0.000 0.0000 0.362 0.0000
1708347780.9017 0.364 0.000 -0.0031 0.364 -0.0031
1708347780.9093 0.366 0.000 -0.0016 0.366 -0.0016
1708347780.9175 0.368 0.000 -0.0016 0.368 -0.0016
1708347780.9254 0.371 0.000 0.0000 0.371 0.0000
1708347780.9342 0.374 0.000 0.0000 0.374 0.0000
1708347780.9412 0.376 0.000 -0.0016 0.376 -0.0016
1708347780.9495 0.378 0.000 -0.0016 0.378 -0.0016
1708347780.9582 0.380 0.000 0.0016 0.380 0.0016
1708347780.9655 0.383 0.000 0.0016 0.383 0.0016
1708347780.9734 0.386 0.000 -0.0016 0.386 -0.0016
1708347780.9813 0.388 0.000 -0.0031 0.388 -0.0031
1708347780.9897 0.390 0.000 0.0000 0.390 0.0000
1708347780.9978 0.392 0.000 0.0016 0.392 0.0016
1708347781.0063 0.395 0.000 0.0000 0.395 0.0000
1708347781.0134 0.398 0.000 -0.0047 0.398 -0.0047
1708347781.0214 0.400 0.000 -0.0062 0.400 -0.0062
1708347781.0297 0.402 0.000 -0.0047 0.402 -0.0047
1708347781.0379 0.404 0.000 -0.0031 0.404 -0.0031
1708347781.0462 0.407 0.000 -0.0062 0.407 -0.0062
1708347781.0538 0.410 0.000 -0.0093 0.410 -0.0093
1708347781.0613 0.412 0.000 -0.0155 0.412 -0.0155
1708347781.0698 0.414 0.000 -0.0186 0.414 -0.0186
1708347781.0773 0.417 0.000 -0.0233 0.417 -0.0233
1708347781.0854 0.419 0.000 -0.0248 0.419 -0.0248
1708347781.0936 0.421 0.000 -0.0295 0.421 -0.0295
1708347781.1013 0.423 0.000 -0.0388 0.423 -0.0388
1708347781.1093 0.426 -0.000 -0.0450 0.426 -0.0450
1708347781.1178 0.428 -0.000 -0.0450 0.428 -0.0450
1708347781.1255 0.431 -0.000 -0.0497 0.431 -0.0497
1708347781.1332 0.433 -0.000 -0.0605 0.433 -0.0605
1708347781.1416 0.436 -0.001 -0.0683 0.436 -0.0683
1708347781.1493 0.438 -0.001 -0.0699 0.438 -0.0699
1708347781.1572 0.440 -0.001 -0.0761 0.440 -0.0761
1708347781.1654 0.443 -0.001 -0.0885 0.443 -0.0885
1708347781.1732 0.445 -0.001 -0.0962 0.445 -0.0962
1708347781.1820 0.447 -0.002 -0.0993 0.447 -0.0993
1708347781.1896 0.450 -0.002 -0.1040 0.450 -0.1040
1708347781.1975 0.452 -0.002 -0.1149 0.452 -0.1149
1708347781.2058 0.455 -0.002 -0.1242 0.455 -0.1242
1708347781.2140 0.457 -0.003 -0.1304 0.457 -0.1304
1708347781.2217 0.459 -0.003 -0.1319 0.460 -0.1319
1708347781.2295 0.462 -0.003 -0.1397 0.462 -0.1397
1708347781.2377 0.464 -0.004 -0.1506 0.465 -0.1506
1708347781.2462 0.467 -0.004 -0.1568 0.467 -0.1568
1708347781.2533 0.469 -0.004 -0.1583 0.469 -0.1583
1708347781.2616 0.472 -0.005 -0.1630 0.472 -0.1630
1708347781.2693 0.474 -0.005 -0.1707 0.475 -0.1707
1708347781.2773 0.476 -0.006 -0.1801 0.476 -0.1801
1708347781.2853 0.478 -0.006 -0.1847 0.478 -0.1847
1708347781.2941 0.481 -0.006 -0.1878 0.481 -0.1878
1708347781.3012 0.484 -0.007 -0.1940 0.484 -0.1940
1708347781.3095 0.486 -0.008 -0.2002 0.487 -0.2002
1708347781.3172 0.488 -0.008 -0.2033 0.488 -0.2033
1708347781.3260 0.490 -0.008 -0.2080 0.490 -0.2080
1708347781.3339 0.493 -0.009 -0.2111 0.493 -0.2111
1708347781.3418 0.496 -0.010 -0.2158 0.497 -0.2158
1708347781.3500 0.498 -0.010 -0.2204 0.499 -0.2204
1708347781.3572 0.499 -0.010 -0.2266 0.500 -0.2266
1708347781.3652 0.502 -0.011 -0.2297 0.502 -0.2297
1708347781.3734 0.504 -0.012 -0.2297 0.505 -0.2297
1708347781.3820 0.507 -0.012 -0.2297 0.508 -0.2297
1708347781.3897 0.509 -0.013 -0.2328 0.510 -0.2328
1708347781.3980 0.511 -0.013 -0.2375 0.512 -0.2375
1708347781.4061 0.514 -0.014 -0.2406 0.515 -0.2406
1708347781.4143 0.516 -0.014 -0.2390 0.518 -0.2390
1708347781.4222 0.518 -0.015 -0.2375 0.519 -0.2375
1708347781.4300 0.520 -0.015 -0.2390 0.522 -0.2390
1708347781.4377 0.523 -0.016 -0.2390 0.525 -0.2390
1708347781.4461 0.526 -0.017 -0.2406 0.527 -0.2406
1708347781.4534 0.527 -0.017 -0.2375 0.529 -0.2375
1708347781.4614 0.530 -0.018 -0.2313 0.531 -0.2313
1708347781.4694 0.532 -0.018 -0.2297 0.534 -0.2297
1708347781.4782 0.535 -0.019 -0.2297 0.536 -0.2297
1708347781.4862 0.537 -0.019 -0.2266 0.539 -0.2266
1708347781.4939 0.539 -0.020 -0.2204 0.541 -0.2204
1708347781.5020 0.541 -0.020 -0.2158 0.543 -0.2158
1708347781.5101 0.544 -0.021 -0.2127 0.546 -0.2127
1708347781.5181 0.547 -0.021 -0.2080 0.549 -0.2080
1708347781.5262 0.549 -0.022 -0.2033 0.551 -0.2033
1708347781.5335 0.551 -0.022 -0.1956 0.553 -0.1956
1708347781.5416 0.554 -0.023 -0.1878 0.556 -0.1878
1708347781.5498 0.556 -0.023 -0.1863 0.558 -0.1863
1708347781.5573 0.558 -0.024 -0.1847 0.561 -0.1847
1708347781.5655 0.561 -0.024 -0.1770 0.563 -0.1770
1708347781.5737 0.563 -0.025 -0.1692 0.566 -0.1692
1708347781.5814 0.565 -0.025 -0.1676 0.568 -0.1676
1708347781.5896 0.567 -0.025 -0.1676 0.570 -0.1676
1708347781.5978 0.570 -0.026 -0.1614 0.573 -0.1614
1708347781.6053 0.572 -0.026 -0.1537 0.575 -0.1537
1708347781.6134 0.575 -0.027 -0.1490 0.577 -0.1490
1708347781.6222 0.577 -0.027 -0.1506 0.580 -0.1506
1708347781.6297 0.579 -0.027 -0.1521 0.582 -0.1521
1708347781.6380 0.582 -0.028 -0.1490 0.585 -0.1490
1708347781.6460 0.584 -0.028 -0.1413 0.587 -0.1413
1708347781.6536 0.587 -0.028 -0.1350 0.589 -0.1350
1708347781.6757 0.589 -0.029 -0.1366 0.591 -0.1366
1708347781.6774 0.591 -0.029 -0.1413 0.594 -0.1413
1708347781.6804 0.593 -0.029 -0.1444 0.596 -0.1444
1708347781.6931 0.595 -0.030 -0.1428 0.598 -0.1428
1708347781.6964 0.596 -0.030 -0.1382 0.598 -0.1382
1708347781.7017 0.595 -0.029 -0.1319 0.597 -0.1319
1708347781.7107 0.595 -0.029 -0.1288 0.598 -0.1288
1708347781.7175 0.598 -0.030 -0.1288 0.601 -0.1288
1708347781.7260 0.602 -0.030 -0.1319 0.605 -0.1319
1708347781.7343 0.604 -0.031 -0.1350 0.607 -0.1350
1708347781.7420 0.605 -0.031 -0.1335 0.608 -0.1335
1708347781.7503 0.606 -0.031 -0.1288 0.609 -0.1288
1708347781.7572 0.609 -0.031 -0.1257 0.612 -0.1257
1708347781.7662 0.612 -0.032 -0.1242 0.615 -0.1242
1708347781.7733 0.614 -0.032 -0.1273 0.617 -0.1273
1708347781.7827 0.615 -0.032 -0.1288 0.618 -0.1288
1708347781.7895 0.618 -0.032 -0.1242 0.621 -0.1242
1708347781.7975 0.621 -0.033 -0.1211 0.624 -0.1211
1708347781.8059 0.623 -0.033 -0.1226 0.626 -0.1226
1708347781.8143 0.625 -0.033 -0.1242 0.628 -0.1242
1708347781.8222 0.627 -0.034 -0.1226 0.630 -0.1226
1708347781.8301 0.630 -0.034 -0.1195 0.633 -0.1195
1708347781.8375 0.633 -0.034 -0.1195 0.636 -0.1195
1708347781.8458 0.635 -0.035 -0.1195 0.638 -0.1195
1708347781.8542 0.636 -0.035 -0.1195 0.640 -0.1195
1708347781.8616 0.638 -0.035 -0.1180 0.642 -0.1180
1708347781.8695 0.641 -0.035 -0.1195 0.644 -0.1195
1708347781.8774 0.644 -0.036 -0.1211 0.647 -0.1211
1708347781.8858 0.646 -0.036 -0.1211 0.649 -0.1211
1708347781.8937 0.648 -0.036 -0.1195 0.651 -0.1195
1708347781.9021 0.650 -0.036 -0.1180 0.654 -0.1180
1708347781.9098 0.653 -0.037 -0.1180 0.657 -0.1180
1708347781.9177 0.656 -0.037 -0.1195 0.659 -0.1195
1708347781.9261 0.658 -0.037 -0.1180 0.661 -0.1180
1708347781.9333 0.659 -0.037 -0.1180 0.663 -0.1180
1708347781.9414 0.662 -0.038 -0.1195 0.666 -0.1195
1708347781.9497 0.665 -0.038 -0.1211 0.668 -0.1211
1708347781.9581 0.667 -0.038 -0.1195 0.670 -0.1195
1708347781.9660 0.669 -0.039 -0.1180 0.672 -0.1180
1708347781.9750 0.671 -0.039 -0.1180 0.675 -0.1180
1708347781.9812 0.674 -0.039 -0.1211 0.678 -0.1211
1708347781.9894 0.677 -0.040 -0.1226 0.680 -0.1226
1708347781.9978 0.679 -0.040 -0.1211 0.682 -0.1211
1708347782.0063 0.680 -0.040 -0.1211 0.684 -0.1211
1708347782.0134 0.683 -0.040 -0.1211 0.687 -0.1211
1708347782.0217 0.686 -0.041 -0.1226 0.690 -0.1226
1708347782.0298 0.688 -0.041 -0.1242 0.692 -0.1242
1708347782.0373 0.690 -0.041 -0.1242 0.694 -0.1242
1708347782.0457 0.693 -0.041 -0.1257 0.696 -0.1257
1708347782.0540 0.695 -0.042 -0.1242 0.699 -0.1242
1708347782.0621 0.698 -0.042 -0.1226 0.702 -0.1226
1708347782.0693 0.700 -0.042 -0.1242 0.704 -0.1242
1708347782.0773 0.702 -0.043 -0.1257 0.706 -0.1257
1708347782.0862 0.705 -0.043 -0.1257 0.708 -0.1257
1708347782.0939 0.707 -0.043 -0.1257 0.711 -0.1257
1708347782.1019 0.710 -0.044 -0.1242 0.714 -0.1242
1708347782.1099 0.713 -0.044 -0.1242 0.716 -0.1242
1708347782.1173 0.714 -0.044 -0.1257 0.718 -0.1257
1708347782.1258 0.717 -0.044 -0.1257 0.720 -0.1257
1708347782.1334 0.720 -0.045 -0.1257 0.723 -0.1257
1708347782.1417 0.722 -0.045 -0.1257 0.726 -0.1257
1708347782.1500 0.724 -0.045 -0.1242 0.728 -0.1242
1708347782.1580 0.726 -0.046 -0.1242 0.730 -0.1242
1708347782.1654 0.729 -0.046 -0.1257 0.732 -0.1257
1708347782.1740 0.731 -0.046 -0.1273 0.735 -0.1273
1708347782.1820 0.734 -0.047 -0.1273 0.738 -0.1273
1708347782.1894 0.736 -0.047 -0.1257 0.740 -0.1257
1708347782.1977 0.738 -0.047 -0.1257 0.742 -0.1257
1708347782.2061 0.740 -0.047 -0.1273 0.744 -0.1273
1708347782.2134 0.743 -0.048 -0.1304 0.747 -0.1304
1708347782.2218 0.746 -0.048 -0.1288 0.750 -0.1288
1708347782.2293 0.748 -0.049 -0.1242 0.752 -0.1242
1708347782.2383 0.750 -0.049 -0.1242 0.754 -0.1242
1708347782.2457 0.752 -0.049 -0.1288 0.756 -0.1288
1708347782.2537 0.755 -0.049 -0.1335 0.759 -0.1335
1708347782.2621 0.758 -0.050 -0.1304 0.762 -0.1304
1708347782.2696 0.760 -0.050 -0.1242 0.764 -0.1242
1708347782.2783 0.762 -0.050 -0.1242 0.766 -0.1242
1708347782.2860 0.764 -0.051 -0.1304 0.768 -0.1304
1708347782.2940 0.767 -0.051 -0.1319 0.771 -0.1319
1708347782.3022 0.769 -0.051 -0.1304 0.774 -0.1304
1708347782.3096 0.772 -0.052 -0.1257 0.776 -0.1257
1708347782.3193 0.774 -0.052 -0.1242 0.778 -0.1242
1708347782.3259 0.776 -0.052 -0.1304 0.780 -0.1304
1708347782.3343 0.779 -0.052 -0.1350 0.783 -0.1350
1708347782.3418 0.781 -0.053 -0.1319 0.785 -0.1319
1708347782.3504 0.784 -0.053 -0.1257 0.788 -0.1257
1708347782.3577 0.786 -0.053 -0.1242 0.790 -0.1242
1708347782.3666 0.788 -0.054 -0.1288 0.792 -0.1288
1708347782.3741 0.791 -0.054 -0.1304 0.795 -0.1304
1708347782.3822 0.793 -0.054 -0.1288 0.798 -0.1288
1708347782.3894 0.795 -0.055 -0.1257 0.799 -0.1257
1708347782.3980 0.797 -0.055 -0.1257 0.801 -0.1257
1708347782.4058 0.799 -0.055 -0.1273 0.804 -0.1273
1708347782.4134 0.803 -0.056 -0.1288 0.807 -0.1288
1708347782.4217 0.805 -0.056 -0.1273 0.809 -0.1273
1708347782.4297 0.807 -0.056 -0.1242 0.811 -0.1242
1708347782.4391 0.809 -0.056 -0.1257 0.813 -0.1257
1708347782.4472 0.812 -0.057 -0.1257 0.816 -0.1257
1708347782.4535 0.815 -0.057 -0.1257 0.819 -0.1257
1708347782.4619 0.817 -0.057 -0.1288 0.821 -0.1288
1708347782.4693 0.818 -0.058 -0.1273 0.823 -0.1273
1708347782.4774 0.820 -0.058 -0.1257 0.824 -0.1257
1708347782.4860 0.823 -0.058 -0.1257 0.827 -0.1257
1708347782.4935 0.826 -0.059 -0.1242 0.831 -0.1242
1708347782.5018 0.828 -0.059 -0.1257 0.833 -0.1257
1708347782.5094 0.830 -0.059 -0.1242 0.835 -0.1242
1708347782.5173 0.832 -0.059 -0.1242 0.837 -0.1242
1708347782.5273 0.835 -0.060 -0.1226 0.840 -0.1226
1708347782.5343 0.838 -0.060 -0.1242 0.843 -0.1242
1708347782.5421 0.840 -0.060 -0.1257 0.845 -0.1257
1708347782.5501 0.842 -0.060 -0.1257 0.847 -0.1257
1708347782.5581 0.844 -0.061 -0.1226 0.849 -0.1226
1708347782.5660 0.846 -0.061 -0.1195 0.851 -0.1195
1708347782.5732 0.849 -0.061 -0.1195 0.854 -0.1195
1708347782.5822 0.852 -0.062 -0.1257 0.856 -0.1257
1708347782.5900 0.853 -0.062 -0.1288 0.858 -0.1288
1708347782.5972 0.856 -0.062 -0.1257 0.861 -0.1257
1708347782.6056 0.858 -0.063 -0.1211 0.863 -0.1211
1708347782.6134 0.861 -0.063 -0.1226 0.866 -0.1226
1708347782.6216 0.864 -0.063 -0.1257 0.868 -0.1257
1708347782.6303 0.866 -0.063 -0.1273 0.871 -0.1273
1708347782.6374 0.868 -0.064 -0.1257 0.873 -0.1257
