% Pose without folding and reset (log_20240224_120330.116/log_pose_abs.txt)
% 1 	Time (sec)
% 2,3 	Position x,y (m)
% 4 	heading (rad)
% 5 	Driven distance (m) - signed
% 6 	Turned angle (rad) - signed
1708772610.7850 0.000 0.000 0.0000 0.000 0.0000
1708772610.7919 0.000 0.000 0.0000 0.000 0.0000
1708772610.8063 0.000 0.000 0.0000 0.000 0.0000
1708772610.8152 0.000 0.000 0.0000 0.000 0.0000
1708772610.8249 0.000 0.000 0.0000 0.000 0.0000
1708772610.8330 0.000 0.000 0.0000 0.000 0.0000
1708772610.8396 0.000 0.000 0.0000 0.000 0.0000
1708772610.8447 0.000 0.000 0.0000 0.000 0.0000
1708772610.8497 0.000 0.000 0.0000 0.000 0.0000
1708772610.8565 0.000 0.000 0.0000 0.000 0.0000
1708772610.8647 0.000 0.000 0.0000 0.000 0.0000
1708772610.8731 0.000 0.000 0.0016 0.000 0.0016
1708772610.8807 0.001 0.000 0.0016 0.001 0.0016
1708772610.8881 0.003 0.000 0.0000 0.003 0.0000
1708772610.8981 0.004 0.000 -0.0016 0.004 -0.0016
1708772610.9042 0.005 0.000 -0.0016 0.005 -0.0016
1708772610.9141 0.006 -0.000 -0.0000 0.006 -0.0000
1708772610.9210 0.008 -0.000 -0.0000 0.008 -0.0000
1708772610.9301 0.010 0.000 0.0016 0.010 0.0016
1708772610.9378 0.012 0.000 0.0016 0.012 0.0016
1708772610.9449 0.014 0.000 -0.0000 0.014 -0.0000
1708772610.9522 0.017 0.000 -0.0000 0.017 -0.0000
1708772610.9605 0.019 0.000 -0.0016 0.019 -0.0016
1708772610.9682 0.022 0.000 -0.0000 0.022 -0.0000
1708772610.9758 0.025 -0.000 -0.0016 0.025 -0.0016
1708772610.9861 0.029 -0.000 -0.0031 0.029 -0.0031
1708772610.9948 0.032 -0.000 -0.0031 0.032 -0.0031
1708772611.0051 0.035 -0.000 -0.0031 0.035 -0.0031
1708772611.0144 0.039 -0.000 -0.0031 0.039 -0.0031
1708772611.0168 0.043 -0.000 -0.0047 0.043 -0.0047
1708772611.0242 0.046 -0.000 -0.0062 0.046 -0.0062
1708772611.0326 0.047 -0.000 -0.0047 0.047 -0.0047
1708772611.0407 0.049 -0.000 -0.0016 0.049 -0.0016
1708772611.0486 0.052 -0.000 -0.0031 0.052 -0.0031
1708772611.0559 0.057 -0.000 -0.0047 0.057 -0.0047
1708772611.0654 0.060 -0.000 -0.0047 0.060 -0.0047
1708772611.0726 0.062 -0.000 -0.0047 0.062 -0.0047
1708772611.0798 0.065 -0.000 -0.0047 0.065 -0.0047
1708772611.0880 0.069 -0.000 -0.0047 0.069 -0.0047
1708772611.0980 0.072 -0.000 -0.0062 0.072 -0.0062
1708772611.1038 0.074 -0.000 -0.0062 0.074 -0.0062
1708772611.1130 0.078 -0.000 -0.0078 0.078 -0.0078
1708772611.1199 0.080 -0.000 -0.0078 0.080 -0.0078
1708772611.1280 0.083 -0.000 -0.0047 0.083 -0.0047
1708772611.1365 0.086 -0.000 -0.0047 0.086 -0.0047
1708772611.1440 0.090 -0.000 -0.0078 0.090 -0.0078
1708772611.1519 0.093 -0.000 -0.0062 0.093 -0.0062
1708772611.1602 0.095 -0.000 -0.0062 0.095 -0.0062
1708772611.1678 0.098 -0.000 -0.0062 0.098 -0.0062
1708772611.1761 0.101 -0.000 -0.0078 0.101 -0.0078
1708772611.1841 0.104 -0.000 -0.0062 0.104 -0.0062
1708772611.1923 0.107 -0.000 -0.0062 0.107 -0.0062
1708772611.2006 0.110 -0.000 -0.0047 0.110 -0.0047
1708772611.2087 0.113 -0.000 -0.0016 0.113 -0.0016
1708772611.2159 0.116 -0.000 -0.0000 0.116 -0.0000
1708772611.2243 0.119 -0.000 -0.0016 0.119 -0.0016
1708772611.2321 0.122 -0.000 0.0016 0.122 0.0016
1708772611.2405 0.125 -0.000 0.0062 0.125 0.0062
1708772611.2482 0.128 -0.000 0.0093 0.128 0.0093
1708772611.2573 0.132 -0.000 0.0078 0.132 0.0078
1708772611.2647 0.135 -0.000 0.0078 0.135 0.0078
1708772611.2720 0.138 -0.000 0.0109 0.138 0.0109
1708772611.2808 0.141 -0.000 0.0186 0.141 0.0186
1708772611.2881 0.144 -0.000 0.0186 0.144 0.0186
1708772611.2969 0.147 -0.000 0.0155 0.147 0.0155
1708772611.3111 0.151 -0.000 0.0140 0.151 0.0140
1708772611.3129 0.154 -0.000 0.0202 0.154 0.0202
1708772611.3230 0.157 0.000 0.0279 0.157 0.0279
1708772611.3290 0.158 0.000 0.0310 0.158 0.0310
1708772611.3360 0.159 0.000 0.0326 0.159 0.0326
1708772611.3442 0.163 0.000 0.0310 0.163 0.0310
1708772611.3527 0.167 0.000 0.0279 0.167 0.0279
1708772611.3600 0.170 0.000 0.0295 0.170 0.0295
1708772611.3682 0.173 0.000 0.0326 0.173 0.0326
1708772611.3761 0.176 0.001 0.0326 0.176 0.0326
1708772611.3842 0.179 0.001 0.0295 0.179 0.0295
1708772611.3924 0.183 0.001 0.0279 0.183 0.0279
1708772611.4010 0.186 0.001 0.0310 0.186 0.0310
1708772611.4083 0.189 0.001 0.0341 0.189 0.0341
1708772611.4167 0.192 0.001 0.0279 0.192 0.0279
1708772611.4254 0.195 0.001 0.0264 0.195 0.0264
1708772611.4327 0.198 0.001 0.0264 0.198 0.0264
1708772611.4399 0.202 0.001 0.0310 0.202 0.0310
1708772611.4490 0.205 0.001 0.0341 0.205 0.0341
1708772611.4567 0.207 0.002 0.0310 0.207 0.0310
1708772611.4643 0.211 0.002 0.0279 0.211 0.0279
1708772611.4727 0.214 0.002 0.0279 0.214 0.0279
1708772611.4802 0.218 0.002 0.0310 0.218 0.0310
1708772611.4886 0.220 0.002 0.0326 0.220 0.0326
1708772611.4973 0.223 0.002 0.0295 0.223 0.0295
1708772611.5046 0.227 0.002 0.0264 0.227 0.0264
1708772611.5120 0.230 0.002 0.0310 0.230 0.0310
1708772611.5208 0.233 0.002 0.0341 0.233 0.0341
1708772611.5281 0.236 0.002 0.0341 0.236 0.0341
1708772611.5365 0.239 0.003 0.0326 0.239 0.0326
1708772611.5444 0.243 0.003 0.0310 0.243 0.0310
1708772611.5523 0.246 0.003 0.0341 0.246 0.0341
1708772611.5605 0.249 0.003 0.0357 0.249 0.0357
1708772611.5683 0.252 0.003 0.0357 0.252 0.0357
1708772611.5766 0.255 0.003 0.0357 0.256 0.0357
1708772611.5840 0.259 0.003 0.0357 0.259 0.0357
1708772611.5929 0.262 0.003 0.0419 0.262 0.0419
1708772611.5998 0.265 0.003 0.0435 0.265 0.0435
1708772611.6079 0.269 0.004 0.0435 0.269 0.0435
1708772611.6168 0.272 0.004 0.0419 0.272 0.0419
1708772611.6240 0.274 0.004 0.0450 0.274 0.0450
1708772611.6323 0.278 0.004 0.0466 0.278 0.0466
1708772611.6401 0.281 0.004 0.0466 0.281 0.0466
1708772611.6481 0.285 0.004 0.0450 0.285 0.0450
1708772611.6562 0.287 0.004 0.0466 0.287 0.0466
1708772611.6641 0.290 0.005 0.0512 0.290 0.0512
1708772611.6725 0.294 0.005 0.0512 0.294 0.0512
1708772611.6807 0.297 0.005 0.0497 0.297 0.0497
1708772611.6886 0.300 0.005 0.0497 0.300 0.0497
1708772611.6964 0.303 0.005 0.0543 0.303 0.0543
1708772611.7047 0.306 0.005 0.0574 0.306 0.0574
1708772611.7126 0.309 0.006 0.0559 0.309 0.0559
1708772611.7198 0.313 0.006 0.0543 0.313 0.0543
1708772611.7280 0.316 0.006 0.0559 0.316 0.0559
1708772611.7370 0.319 0.006 0.0590 0.319 0.0590
1708772611.7441 0.322 0.006 0.0590 0.322 0.0590
1708772611.7520 0.325 0.006 0.0590 0.326 0.0590
1708772611.7609 0.329 0.007 0.0605 0.329 0.0605
1708772611.7683 0.332 0.007 0.0605 0.332 0.0605
1708772611.7762 0.335 0.007 0.0590 0.335 0.0590
1708772611.7849 0.338 0.007 0.0574 0.339 0.0574
1708772611.7922 0.342 0.007 0.0621 0.342 0.0621
1708772611.8001 0.345 0.008 0.0636 0.345 0.0636
1708772611.8090 0.348 0.008 0.0605 0.348 0.0605
1708772611.8163 0.351 0.008 0.0590 0.351 0.0590
1708772611.8246 0.354 0.008 0.0574 0.354 0.0574
1708772611.8324 0.358 0.008 0.0605 0.358 0.0605
1708772611.8398 0.361 0.009 0.0636 0.361 0.0636
1708772611.8479 0.364 0.009 0.0621 0.364 0.0621
1708772611.8569 0.367 0.009 0.0574 0.367 0.0574
1708772611.8642 0.370 0.009 0.0574 0.370 0.0574
1708772611.8724 0.374 0.009 0.0590 0.374 0.0590
1708772611.8802 0.377 0.010 0.0574 0.377 0.0574
1708772611.8884 0.380 0.010 0.0574 0.380 0.0574
1708772611.8963 0.383 0.010 0.0543 0.383 0.0543
1708772611.9042 0.386 0.010 0.0543 0.386 0.0543
1708772611.9125 0.390 0.010 0.0559 0.390 0.0559
1708772611.9208 0.393 0.010 0.0574 0.393 0.0574
1708772611.9286 0.395 0.011 0.0559 0.396 0.0559
1708772611.9359 0.399 0.011 0.0512 0.399 0.0512
1708772611.9444 0.403 0.011 0.0497 0.403 0.0497
1708772611.9531 0.405 0.011 0.0512 0.406 0.0512
1708772611.9603 0.408 0.011 0.0543 0.408 0.0543
1708772611.9685 0.411 0.011 0.0512 0.412 0.0512
1708772611.9766 0.415 0.012 0.0481 0.415 0.0481
1708772611.9841 0.418 0.012 0.0466 0.418 0.0466
1708772611.9923 0.421 0.012 0.0481 0.422 0.0481
1708772612.0008 0.424 0.012 0.0497 0.424 0.0497
1708772612.0081 0.427 0.012 0.0481 0.427 0.0481
1708772612.0163 0.431 0.012 0.0450 0.431 0.0450
1708772612.0241 0.434 0.013 0.0435 0.434 0.0435
1708772612.0327 0.437 0.013 0.0450 0.437 0.0450
1708772612.0399 0.440 0.013 0.0450 0.440 0.0450
1708772612.0485 0.443 0.013 0.0435 0.443 0.0435
1708772612.0568 0.447 0.013 0.0404 0.447 0.0404
1708772612.0640 0.450 0.013 0.0419 0.450 0.0419
1708772612.0730 0.453 0.013 0.0419 0.453 0.0419
1708772612.0802 0.456 0.013 0.0388 0.456 0.0388
1708772612.0886 0.459 0.014 0.0373 0.459 0.0373
1708772612.0968 0.463 0.014 0.0388 0.463 0.0388
1708772612.1042 0.466 0.014 0.0388 0.466 0.0388
1708772612.1126 0.469 0.014 0.0373 0.469 0.0373
1708772612.1204 0.472 0.014 0.0341 0.472 0.0341
1708772612.1287 0.475 0.014 0.0326 0.475 0.0326
1708772612.1360 0.479 0.014 0.0357 0.479 0.0357
1708772612.1458 0.482 0.014 0.0388 0.482 0.0388
1708772612.1527 0.484 0.014 0.0357 0.485 0.0357
1708772612.1599 0.488 0.015 0.0326 0.488 0.0326
1708772612.1690 0.491 0.015 0.0341 0.491 0.0341
1708772612.1763 0.494 0.015 0.0357 0.494 0.0357
1708772612.1848 0.497 0.015 0.0357 0.497 0.0357
1708772612.1927 0.500 0.015 0.0326 0.501 0.0326
1708772612.2007 0.504 0.015 0.0279 0.504 0.0279
1708772612.2080 0.507 0.015 0.0295 0.508 0.0295
1708772612.2170 0.510 0.015 0.0326 0.511 0.0326
1708772612.2242 0.513 0.015 0.0326 0.513 0.0326
1708772612.2319 0.516 0.016 0.0326 0.517 0.0326
1708772612.2410 0.520 0.016 0.0310 0.520 0.0310
1708772612.2479 0.523 0.016 0.0310 0.524 0.0310
1708772612.2562 0.526 0.016 0.0341 0.527 0.0341
1708772612.2651 0.529 0.016 0.0341 0.530 0.0341
1708772612.2723 0.532 0.016 0.0326 0.533 0.0326
1708772612.2801 0.536 0.016 0.0295 0.537 0.0295
1708772612.2882 0.539 0.016 0.0310 0.540 0.0310
1708772612.2965 0.542 0.016 0.0310 0.542 0.0310
1708772612.3046 0.545 0.016 0.0310 0.545 0.0310
1708772612.3126 0.549 0.017 0.0326 0.549 0.0326
1708772612.3198 0.552 0.017 0.0326 0.553 0.0326
1708772612.3279 0.555 0.017 0.0310 0.556 0.0310
1708772612.3369 0.557 0.017 0.0341 0.558 0.0341
1708772612.3442 0.561 0.017 0.0326 0.561 0.0326
1708772612.3522 0.565 0.017 0.0310 0.565 0.0310
1708772612.3601 0.568 0.017 0.0341 0.568 0.0341
1708772612.3686 0.571 0.017 0.0357 0.571 0.0357
1708772612.3768 0.573 0.017 0.0341 0.574 0.0341
1708772612.3847 0.577 0.018 0.0341 0.577 0.0341
1708772612.3920 0.580 0.018 0.0341 0.581 0.0341
1708772612.4000 0.584 0.018 0.0357 0.584 0.0357
1708772612.4089 0.586 0.018 0.0373 0.587 0.0373
1708772612.4163 0.589 0.018 0.0388 0.589 0.0388
1708772612.4247 0.593 0.018 0.0373 0.593 0.0373
1708772612.4326 0.596 0.018 0.0357 0.597 0.0357
1708772612.4398 0.599 0.018 0.0373 0.600 0.0373
1708772612.4478 0.602 0.018 0.0404 0.602 0.0404
1708772612.4567 0.605 0.019 0.0419 0.605 0.0419
1708772612.4648 0.608 0.019 0.0435 0.609 0.0435
1708772612.4720 0.612 0.019 0.0404 0.613 0.0404
1708772612.4810 0.615 0.019 0.0373 0.616 0.0373
1708772612.4883 0.618 0.019 0.0388 0.618 0.0388
1708772612.4967 0.621 0.019 0.0419 0.621 0.0419
1708772612.5052 0.624 0.019 0.0466 0.625 0.0466
1708772612.5124 0.628 0.020 0.0435 0.628 0.0435
1708772612.5207 0.631 0.020 0.0435 0.631 0.0435
1708772612.5286 0.633 0.020 0.0419 0.634 0.0419
1708772612.5359 0.636 0.020 0.0466 0.637 0.0466
1708772612.5441 0.640 0.020 0.0497 0.640 0.0497
1708772612.5525 0.644 0.020 0.0481 0.644 0.0481
1708772612.5607 0.647 0.020 0.0466 0.647 0.0466
1708772612.5679 0.650 0.021 0.0481 0.650 0.0481
1708772612.5768 0.653 0.021 0.0528 0.653 0.0528
1708772612.5840 0.656 0.021 0.0528 0.656 0.0528
1708772612.5924 0.659 0.021 0.0497 0.660 0.0497
1708772612.6008 0.662 0.021 0.0512 0.663 0.0512
1708772612.6081 0.666 0.021 0.0559 0.666 0.0559
1708772612.6166 0.669 0.022 0.0559 0.669 0.0559
1708772612.6246 0.672 0.022 0.0543 0.672 0.0543
1708772612.6318 0.675 0.022 0.0528 0.676 0.0528
1708772612.6399 0.679 0.022 0.0543 0.679 0.0543
1708772612.6485 0.681 0.022 0.0590 0.682 0.0590
1708772612.6558 0.684 0.022 0.0590 0.685 0.0590
1708772612.6641 0.688 0.023 0.0590 0.688 0.0590
1708772612.6731 0.691 0.023 0.0574 0.692 0.0574
1708772612.6804 0.694 0.023 0.0590 0.695 0.0590
1708772612.6886 0.698 0.023 0.0621 0.698 0.0621
1708772612.6968 0.701 0.023 0.0636 0.701 0.0636
1708772612.7039 0.704 0.024 0.0605 0.704 0.0605
1708772612.7121 0.707 0.024 0.0590 0.708 0.0590
1708772612.7210 0.710 0.024 0.0636 0.711 0.0636
1708772612.7282 0.714 0.024 0.0699 0.714 0.0699
1708772612.7364 0.717 0.024 0.0699 0.717 0.0699
1708772612.7444 0.720 0.025 0.0667 0.720 0.0667
1708772612.7524 0.723 0.025 0.0652 0.723 0.0652
1708772612.7607 0.726 0.025 0.0699 0.727 0.0699
1708772612.7686 0.729 0.025 0.0776 0.730 0.0776
1708772612.7763 0.732 0.025 0.0807 0.733 0.0807
1708772612.7847 0.735 0.026 0.0761 0.736 0.0761
1708772612.7927 0.739 0.026 0.0730 0.739 0.0730
1708772612.8006 0.742 0.026 0.0761 0.743 0.0761
1708772612.8078 0.745 0.027 0.0838 0.746 0.0838
1708772612.8168 0.748 0.027 0.0885 0.749 0.0885
1708772612.8240 0.751 0.027 0.0854 0.752 0.0854
1708772612.8325 0.755 0.027 0.0838 0.756 0.0838
1708772612.8403 0.758 0.028 0.0900 0.759 0.0900
1708772612.8482 0.761 0.028 0.0993 0.762 0.0993
1708772612.8565 0.764 0.028 0.1009 0.765 0.1009
1708772612.8652 0.768 0.029 0.0993 0.768 0.0993
1708772612.8725 0.771 0.029 0.1009 0.772 0.1009
1708772612.8807 0.774 0.029 0.1056 0.775 0.1056
1708772612.8887 0.777 0.029 0.1133 0.778 0.1133
1708772612.8959 0.780 0.030 0.1133 0.781 0.1133
1708772612.9038 0.783 0.030 0.1133 0.784 0.1133
1708772612.9126 0.786 0.031 0.1164 0.787 0.1164
1708772612.9199 0.790 0.031 0.1226 0.790 0.1226
1708772612.9281 0.793 0.031 0.1273 0.794 0.1273
1708772612.9370 0.796 0.032 0.1257 0.796 0.1257
1708772612.9443 0.799 0.032 0.1273 0.800 0.1273
1708772612.9521 0.802 0.033 0.1304 0.803 0.1304
1708772612.9603 0.806 0.033 0.1350 0.807 0.1350
1708772612.9687 0.808 0.033 0.1397 0.809 0.1397
1708772612.9760 0.811 0.034 0.1428 0.812 0.1428
1708772612.9844 0.815 0.034 0.1444 0.816 0.1444
1708772612.9924 0.818 0.035 0.1490 0.819 0.1490
1708772613.0003 0.821 0.035 0.1537 0.822 0.1537
1708772613.0086 0.824 0.036 0.1552 0.825 0.1552
1708772613.0159 0.827 0.036 0.1552 0.828 0.1552
1708772613.0242 0.830 0.037 0.1552 0.832 0.1552
1708772613.0326 0.833 0.037 0.1614 0.834 0.1614
1708772613.0406 0.836 0.038 0.1692 0.838 0.1692
1708772613.0484 0.840 0.038 0.1707 0.841 0.1707
1708772613.0568 0.843 0.039 0.1707 0.845 0.1707
1708772613.0647 0.846 0.039 0.1707 0.848 0.1707
1708772613.0720 0.849 0.040 0.1754 0.850 0.1754
1708772613.0805 0.852 0.040 0.1801 0.854 0.1801
1708772613.0885 0.855 0.041 0.1832 0.857 0.1832
1708772613.0967 0.859 0.042 0.1816 0.861 0.1816
1708772613.1046 0.862 0.042 0.1832 0.863 0.1832
1708772613.1126 0.864 0.043 0.1878 0.866 0.1878
1708772613.1198 0.868 0.043 0.1909 0.870 0.1909
1708772613.1282 0.871 0.044 0.1925 0.873 0.1925
1708772613.1362 0.874 0.045 0.1940 0.876 0.1940
1708772613.1446 0.877 0.045 0.1925 0.879 0.1925
1708772613.1528 0.880 0.046 0.1940 0.882 0.1940
1708772613.1606 0.884 0.047 0.1971 0.886 0.1971
1708772613.1679 0.887 0.047 0.1987 0.889 0.1987
1708772613.1763 0.890 0.048 0.1987 0.892 0.1987
1708772613.1840 0.893 0.048 0.1956 0.895 0.1956
1708772613.1923 0.896 0.049 0.1956 0.898 0.1956
1708772613.2002 0.899 0.050 0.2002 0.902 0.2002
1708772613.2080 0.902 0.050 0.2018 0.905 0.2018
1708772613.2158 0.905 0.051 0.1971 0.908 0.1971
1708772613.2251 0.909 0.052 0.1909 0.911 0.1909
1708772613.2319 0.912 0.052 0.1925 0.915 0.1925
1708772613.2402 0.915 0.053 0.1971 0.918 0.1971
1708772613.2482 0.918 0.053 0.1956 0.921 0.1956
1708772613.2560 0.921 0.054 0.1925 0.924 0.1925
1708772613.2642 0.924 0.055 0.1894 0.927 0.1894
1708772613.2725 0.928 0.055 0.1925 0.931 0.1925
1708772613.2801 0.931 0.056 0.1940 0.934 0.1940
1708772613.2885 0.934 0.057 0.1909 0.938 0.1909
1708772613.2959 0.937 0.057 0.1878 0.940 0.1878
1708772613.3047 0.940 0.058 0.1863 0.943 0.1863
1708772613.3119 0.943 0.058 0.1878 0.946 0.1878
1708772613.3201 0.947 0.059 0.1878 0.950 0.1878
1708772613.3280 0.950 0.059 0.1863 0.953 0.1863
1708772613.3363 0.953 0.060 0.1816 0.956 0.1816
1708772613.3447 0.955 0.060 0.1801 0.959 0.1801
1708772613.3522 0.959 0.061 0.1801 0.963 0.1801
1708772613.3603 0.963 0.062 0.1816 0.966 0.1816
1708772613.3687 0.965 0.062 0.1816 0.969 0.1816
1708772613.3766 0.968 0.063 0.1754 0.971 0.1754
1708772613.3848 0.971 0.063 0.1707 0.975 0.1707
1708772613.3922 0.974 0.064 0.1723 0.978 0.1723
1708772613.4007 0.978 0.064 0.1754 0.982 0.1754
1708772613.4079 0.980 0.065 0.1754 0.984 0.1754
1708772613.4162 0.983 0.065 0.1707 0.987 0.1707
1708772613.4241 0.987 0.066 0.1661 0.991 0.1661
1708772613.4323 0.990 0.067 0.1661 0.994 0.1661
1708772613.4407 0.993 0.067 0.1692 0.997 0.1692
1708772613.4481 0.996 0.068 0.1692 1.001 0.1692
1708772613.4563 0.999 0.068 0.1645 1.003 0.1645
1708772613.4647 1.003 0.069 0.1583 1.007 0.1583
1708772613.4726 1.006 0.069 0.1599 1.010 0.1599
1708772613.4802 1.009 0.070 0.1630 1.014 0.1630
1708772613.4885 1.012 0.070 0.1630 1.017 0.1630
1708772613.4964 1.016 0.071 0.1583 1.020 0.1583
1708772613.5042 1.019 0.071 0.1552 1.023 0.1552
1708772613.5126 1.022 0.072 0.1568 1.026 0.1568
1708772613.5205 1.025 0.072 0.1583 1.029 0.1583
1708772613.5288 1.028 0.073 0.1568 1.033 0.1568
1708772613.5361 1.031 0.073 0.1506 1.036 0.1506
1708772613.5448 1.035 0.074 0.1475 1.039 0.1475
1708772613.5527 1.038 0.074 0.1506 1.042 0.1506
1708772613.5600 1.041 0.075 0.1506 1.045 0.1506
1708772613.5679 1.044 0.075 0.1475 1.049 0.1475
1708772613.5762 1.047 0.076 0.1428 1.052 0.1428
1708772613.5845 1.050 0.076 0.1428 1.055 0.1428
1708772613.5924 1.053 0.077 0.1444 1.058 0.1444
1708772613.6002 1.057 0.077 0.1444 1.062 0.1444
1708772613.6086 1.060 0.078 0.1413 1.065 0.1413
1708772613.6165 1.063 0.078 0.1382 1.068 0.1382
1708772613.6248 1.066 0.078 0.1382 1.071 0.1382
1708772613.6319 1.069 0.079 0.1366 1.074 0.1366
1708772613.6408 1.073 0.079 0.1350 1.078 0.1350
1708772613.6488 1.075 0.080 0.1335 1.080 0.1335
1708772613.6561 1.078 0.080 0.1335 1.083 0.1335
1708772613.6645 1.082 0.080 0.1335 1.087 0.1335
1708772613.6718 1.085 0.081 0.1304 1.090 0.1304
1708772613.6800 1.088 0.081 0.1288 1.093 0.1288
1708772613.6879 1.091 0.082 0.1273 1.096 0.1273
1708772613.6961 1.094 0.082 0.1257 1.099 0.1257
1708772613.7040 1.097 0.083 0.1257 1.103 0.1257
1708772613.7119 1.101 0.083 0.1257 1.106 0.1257
1708772613.7200 1.104 0.083 0.1257 1.109 0.1257
1708772613.7284 1.106 0.084 0.1226 1.112 0.1226
1708772613.7363 1.110 0.084 0.1195 1.115 0.1195
1708772613.7446 1.114 0.085 0.1195 1.119 0.1195
1708772613.7526 1.117 0.085 0.1195 1.122 0.1195
1708772613.7604 1.119 0.085 0.1195 1.125 0.1195
1708772613.7685 1.122 0.086 0.1180 1.128 0.1180
1708772613.7764 1.126 0.086 0.1164 1.131 0.1164
1708772613.7843 1.130 0.086 0.1149 1.135 0.1149
1708772613.7927 1.132 0.087 0.1149 1.138 0.1149
1708772613.8007 1.135 0.087 0.1133 1.140 0.1133
1708772613.8085 1.138 0.087 0.1133 1.143 0.1133
1708772613.8166 1.142 0.088 0.1118 1.147 0.1118
1708772613.8240 1.145 0.088 0.1102 1.151 0.1102
1708772613.8318 1.148 0.088 0.1087 1.153 0.1087
1708772613.8401 1.150 0.089 0.1102 1.156 0.1102
1708772613.8481 1.153 0.089 0.1087 1.159 0.1087
1708772613.8568 1.157 0.090 0.1056 1.163 0.1056
1708772613.8647 1.161 0.090 0.1071 1.166 0.1071
1708772613.8721 1.164 0.090 0.1071 1.170 0.1071
1708772613.8799 1.166 0.090 0.1040 1.172 0.1040
1708772613.8882 1.170 0.091 0.1024 1.175 0.1024
1708772613.8965 1.173 0.091 0.1009 1.179 0.1009
1708772613.9049 1.177 0.092 0.1024 1.183 0.1024
1708772613.9121 1.180 0.092 0.0993 1.186 0.0993
1708772613.9205 1.183 0.092 0.0978 1.188 0.0978
1708772613.9285 1.186 0.092 0.0993 1.192 0.0993
1708772613.9367 1.190 0.093 0.0993 1.195 0.0993
1708772613.9450 1.193 0.093 0.0978 1.199 0.0978
1708772613.9525 1.196 0.093 0.0978 1.202 0.0978
1708772613.9607 1.199 0.094 0.0962 1.205 0.0962
1708772613.9680 1.202 0.094 0.0962 1.208 0.0962
1708772613.9759 1.206 0.094 0.0962 1.212 0.0962
1708772613.9841 1.209 0.095 0.0962 1.215 0.0962
1708772613.9923 1.211 0.095 0.0931 1.217 0.0931
1708772613.9998 1.214 0.095 0.0916 1.220 0.0916
1708772614.0081 1.218 0.096 0.0916 1.224 0.0916
1708772614.0165 1.221 0.096 0.0931 1.227 0.0931
1708772614.0244 1.224 0.096 0.0931 1.230 0.0931
1708772614.0329 1.227 0.096 0.0931 1.233 0.0931
1708772614.0400 1.231 0.097 0.0916 1.237 0.0916
1708772614.0484 1.235 0.097 0.0916 1.241 0.0916
