% Pose without folding and reset (log_20240224_131930.020/log_pose_abs.txt)
% 1 	Time (sec)
% 2,3 	Position x,y (m)
% 4 	heading (rad)
% 5 	Driven distance (m) - signed
% 6 	Turned angle (rad) - signed
1708777170.9206 0.000 0.000 0.0000 0.000 0.0000
1708777170.9280 0.000 0.000 0.0000 0.000 0.0000
1708777170.9353 0.000 0.000 0.0000 0.000 0.0000
1708777170.9439 0.000 0.000 0.0000 0.000 0.0000
1708777170.9520 0.000 0.000 0.0000 0.000 0.0000
1708777170.9600 0.000 0.000 0.0000 0.000 0.0000
1708777170.9675 0.000 0.000 0.0000 0.000 0.0000
1708777170.9762 0.000 0.000 0.0000 0.000 0.0000
1708777170.9840 0.000 0.000 0.0000 0.000 0.0000
1708777170.9916 0.000 0.000 0.0000 0.000 0.0000
1708777171.0000 0.000 0.000 0.0000 0.000 0.0000
1708777171.0073 0.000 0.000 0.0000 0.000 0.0000
1708777171.0162 0.000 0.000 0.0000 0.000 0.0000
1708777171.0235 0.000 0.000 0.0000 0.000 0.0000
1708777171.0321 0.000 0.000 0.0000 0.000 0.0000
1708777171.0397 0.000 0.000 0.0016 0.000 0.0016
1708777171.0478 0.003 0.000 0.0000 0.003 0.0000
1708777171.0560 0.006 -0.000 -0.0047 0.006 -0.0047
1708777171.0637 0.008 -0.000 -0.0093 0.008 -0.0093
1708777171.0715 0.009 -0.000 -0.0047 0.009 -0.0047
1708777171.0798 0.012 -0.000 -0.0047 0.012 -0.0047
1708777171.0873 0.016 -0.000 -0.0062 0.016 -0.0062
1708777171.0962 0.019 -0.000 -0.0047 0.019 -0.0047
1708777171.1034 0.024 -0.000 -0.0047 0.024 -0.0047
1708777171.1123 0.028 -0.000 -0.0078 0.028 -0.0078
1708777171.1198 0.033 -0.000 -0.0047 0.033 -0.0047
1708777171.1307 0.038 -0.000 -0.0016 0.038 -0.0016
1708777171.1355 0.043 -0.000 -0.0016 0.043 -0.0016
1708777171.1441 0.049 -0.000 0.0000 0.049 -0.0000
1708777171.1521 0.053 -0.000 0.0047 0.053 0.0047
1708777171.1606 0.058 -0.000 0.0047 0.058 0.0047
1708777171.1674 0.064 -0.000 0.0031 0.064 0.0031
1708777171.1760 0.070 -0.000 0.0016 0.070 0.0016
1708777171.1834 0.074 -0.000 0.0016 0.074 0.0016
1708777171.1916 0.079 -0.000 0.0031 0.079 0.0031
1708777171.2000 0.085 -0.000 0.0016 0.085 0.0016
1708777171.2081 0.091 -0.000 0.0016 0.091 0.0016
1708777171.2157 0.096 -0.000 0.0031 0.096 0.0031
1708777171.2238 0.101 -0.000 0.0031 0.101 0.0031
1708777171.2323 0.107 -0.000 0.0016 0.107 0.0016
1708777171.2394 0.113 -0.000 0.0016 0.113 0.0016
1708777171.2477 0.119 -0.000 0.0016 0.119 0.0016
1708777171.2563 0.125 -0.000 0.0016 0.125 0.0016
1708777171.2634 0.132 0.000 0.0016 0.132 0.0016
1708777171.2716 0.138 0.000 0.0016 0.138 0.0016
1708777171.2802 0.144 0.000 0.0031 0.144 0.0031
1708777171.2884 0.150 0.000 0.0031 0.150 0.0031
1708777171.2953 0.157 0.000 0.0016 0.157 0.0016
1708777171.3040 0.163 0.000 0.0016 0.163 0.0016
1708777171.3113 0.168 0.000 0.0047 0.168 0.0047
1708777171.3196 0.173 0.000 0.0031 0.173 0.0031
1708777171.3281 0.179 0.000 0.0000 0.179 0.0000
1708777171.3362 0.185 0.000 0.0016 0.185 0.0016
1708777171.3443 0.192 0.000 0.0031 0.192 0.0031
1708777171.3565 0.197 0.000 0.0062 0.197 0.0062
1708777171.3597 0.203 0.000 0.0062 0.203 0.0062
1708777171.3688 0.207 0.000 0.0062 0.207 0.0062
1708777171.3766 0.210 0.000 0.0047 0.210 0.0047
1708777171.3834 0.214 0.000 0.0016 0.214 0.0016
1708777171.3924 0.220 0.000 -0.0047 0.220 -0.0047
1708777171.3994 0.226 0.000 -0.0031 0.226 -0.0031
1708777171.4076 0.232 0.000 0.0047 0.232 0.0047
1708777171.4160 0.237 0.000 0.0078 0.237 0.0078
1708777171.4242 0.242 0.000 0.0078 0.242 0.0078
1708777171.4319 0.247 0.000 0.0093 0.247 0.0093
1708777171.4395 0.253 0.000 0.0124 0.253 0.0124
1708777171.4483 0.259 0.000 0.0140 0.259 0.0140
1708777171.4557 0.263 0.001 0.0155 0.263 0.0155
1708777171.4640 0.269 0.001 0.0171 0.269 0.0171
1708777171.4717 0.275 0.001 0.0186 0.275 0.0186
1708777171.4803 0.281 0.001 0.0202 0.281 0.0202
1708777171.4875 0.286 0.001 0.0233 0.286 0.0233
1708777171.4963 0.292 0.001 0.0248 0.292 0.0248
1708777171.5033 0.297 0.001 0.0233 0.297 0.0233
1708777171.5116 0.303 0.001 0.0248 0.303 0.0248
1708777171.5193 0.308 0.002 0.0264 0.308 0.0264
1708777171.5276 0.313 0.002 0.0279 0.313 0.0279
1708777171.5359 0.319 0.002 0.0279 0.319 0.0279
1708777171.5436 0.325 0.002 0.0295 0.325 0.0295
1708777171.5518 0.331 0.002 0.0326 0.331 0.0326
1708777171.5601 0.336 0.002 0.0341 0.336 0.0341
1708777171.5676 0.341 0.003 0.0373 0.341 0.0373
1708777171.5763 0.348 0.003 0.0388 0.348 0.0388
1708777171.5838 0.353 0.003 0.0373 0.353 0.0373
1708777171.5917 0.359 0.003 0.0373 0.359 0.0373
1708777171.6003 0.364 0.003 0.0404 0.364 0.0404
1708777171.6076 0.369 0.004 0.0435 0.369 0.0435
1708777171.6163 0.375 0.004 0.0450 0.375 0.0450
1708777171.6234 0.381 0.004 0.0435 0.381 0.0435
1708777171.6315 0.386 0.004 0.0435 0.386 0.0435
1708777171.6397 0.391 0.005 0.0466 0.392 0.0466
1708777171.6479 0.397 0.005 0.0481 0.397 0.0481
1708777171.6560 0.403 0.005 0.0497 0.403 0.0497
1708777171.6637 0.409 0.005 0.0466 0.409 0.0466
1708777171.6720 0.414 0.006 0.0481 0.414 0.0481
1708777171.6800 0.419 0.006 0.0528 0.419 0.0528
1708777171.6877 0.425 0.006 0.0559 0.425 0.0559
1708777171.6959 0.431 0.007 0.0543 0.431 0.0543
1708777171.7040 0.436 0.007 0.0512 0.436 0.0512
1708777171.7122 0.441 0.007 0.0543 0.442 0.0543
1708777171.7193 0.447 0.007 0.0574 0.447 0.0574
1708777171.7283 0.453 0.008 0.0574 0.453 0.0574
1708777171.7361 0.458 0.008 0.0559 0.458 0.0559
1708777171.7443 0.464 0.008 0.0590 0.464 0.0590
1708777171.7514 0.470 0.009 0.0621 0.470 0.0621
1708777171.7603 0.475 0.009 0.0652 0.476 0.0652
1708777171.7674 0.481 0.009 0.0636 0.481 0.0636
1708777171.7757 0.486 0.010 0.0636 0.486 0.0636
1708777171.7841 0.492 0.010 0.0652 0.492 0.0652
1708777171.7922 0.498 0.011 0.0714 0.499 0.0714
1708777171.7994 0.504 0.011 0.0699 0.505 0.0699
1708777171.8083 0.509 0.011 0.0652 0.510 0.0652
1708777171.8155 0.514 0.012 0.0667 0.515 0.0667
1708777171.8237 0.520 0.012 0.0683 0.520 0.0683
1708777171.8322 0.526 0.012 0.0667 0.526 0.0667
1708777171.8402 0.531 0.013 0.0636 0.532 0.0636
1708777171.8477 0.537 0.013 0.0652 0.538 0.0652
1708777171.8556 0.543 0.014 0.0699 0.543 0.0699
1708777171.8639 0.548 0.014 0.0714 0.548 0.0714
1708777171.8723 0.554 0.014 0.0667 0.554 0.0667
1708777171.8801 0.559 0.015 0.0652 0.560 0.0652
1708777171.8883 0.565 0.015 0.0667 0.565 0.0667
1708777171.8955 0.570 0.015 0.0652 0.570 0.0652
1708777171.9035 0.576 0.016 0.0652 0.576 0.0652
1708777171.9125 0.582 0.016 0.0621 0.582 0.0621
1708777171.9197 0.587 0.017 0.0590 0.587 0.0590
1708777171.9281 0.593 0.017 0.0559 0.593 0.0559
1708777171.9353 0.598 0.017 0.0559 0.598 0.0559
1708777171.9437 0.603 0.017 0.0543 0.604 0.0543
1708777171.9515 0.609 0.018 0.0497 0.609 0.0497
1708777171.9600 0.614 0.018 0.0481 0.615 0.0481
1708777171.9674 0.620 0.018 0.0450 0.620 0.0450
1708777171.9756 0.626 0.019 0.0435 0.626 0.0435
1708777171.9836 0.631 0.019 0.0419 0.632 0.0419
1708777171.9919 0.637 0.019 0.0388 0.637 0.0388
1708777171.9993 0.642 0.019 0.0357 0.643 0.0357
1708777172.0076 0.648 0.019 0.0326 0.649 0.0326
1708777172.0159 0.653 0.020 0.0326 0.654 0.0326
1708777172.0236 0.659 0.020 0.0295 0.660 0.0295
1708777172.0316 0.665 0.020 0.0279 0.665 0.0279
1708777172.0399 0.671 0.020 0.0248 0.671 0.0248
1708777172.0476 0.675 0.020 0.0217 0.676 0.0217
1708777172.0559 0.681 0.020 0.0202 0.682 0.0202
1708777172.0643 0.687 0.020 0.0186 0.688 0.0186
1708777172.0722 0.693 0.020 0.0155 0.694 0.0155
1708777172.0800 0.698 0.021 0.0124 0.699 0.0124
1708777172.0883 0.704 0.021 0.0109 0.704 0.0109
1708777172.0960 0.710 0.021 0.0109 0.710 0.0109
1708777172.1042 0.716 0.021 0.0093 0.716 0.0093
1708777172.1117 0.721 0.021 0.0047 0.722 0.0047
1708777172.1195 0.727 0.021 0.0016 0.727 0.0016
1708777172.1274 0.732 0.021 0.0031 0.732 0.0031
1708777172.1363 0.737 0.021 0.0047 0.738 0.0047
1708777172.1441 0.743 0.021 0.0016 0.744 0.0016
1708777172.1521 0.750 0.021 -0.0031 0.750 -0.0031
1708777172.1593 0.755 0.021 -0.0047 0.756 -0.0047
1708777172.1682 0.760 0.021 -0.0047 0.760 -0.0047
1708777172.1754 0.765 0.021 -0.0047 0.765 -0.0047
1708777172.1843 0.771 0.021 -0.0047 0.771 -0.0047
1708777172.1914 0.777 0.021 -0.0078 0.777 -0.0078
1708777172.1994 0.783 0.021 -0.0124 0.783 -0.0124
1708777172.2077 0.788 0.021 -0.0109 0.788 -0.0109
1708777172.2154 0.793 0.021 -0.0093 0.793 -0.0093
1708777172.2241 0.798 0.021 -0.0093 0.799 -0.0093
1708777172.2320 0.804 0.020 -0.0109 0.805 -0.0109
1708777172.2397 0.810 0.020 -0.0155 0.811 -0.0155
1708777172.2483 0.816 0.020 -0.0124 0.816 -0.0124
1708777172.2555 0.821 0.020 -0.0093 0.821 -0.0093
1708777172.2633 0.826 0.020 -0.0093 0.827 -0.0093
1708777172.2715 0.832 0.020 -0.0140 0.833 -0.0140
1708777172.2794 0.838 0.020 -0.0155 0.838 -0.0155
1708777172.2881 0.843 0.020 -0.0140 0.844 -0.0140
1708777172.2963 0.849 0.020 -0.0109 0.849 -0.0109
1708777172.3035 0.855 0.020 -0.0140 0.855 -0.0140
1708777172.3113 0.861 0.020 -0.0171 0.861 -0.0171
1708777172.3195 0.866 0.020 -0.0171 0.866 -0.0171
1708777172.3274 0.871 0.020 -0.0155 0.871 -0.0155
1708777172.3362 0.877 0.019 -0.0124 0.877 -0.0124
1708777172.3444 0.883 0.019 -0.0109 0.884 -0.0109
1708777172.3515 0.889 0.019 -0.0109 0.889 -0.0109
1708777172.3594 0.894 0.019 -0.0109 0.894 -0.0109
1708777172.3677 0.898 0.019 -0.0093 0.899 -0.0093
1708777172.3758 0.904 0.019 -0.0078 0.905 -0.0078
1708777172.3842 0.911 0.019 -0.0078 0.911 -0.0078
1708777172.3913 0.917 0.019 -0.0047 0.918 -0.0047
1708777172.3997 0.922 0.019 -0.0031 0.923 -0.0031
1708777172.4075 0.926 0.019 -0.0016 0.927 -0.0016
1708777172.4154 0.932 0.019 -0.0016 0.932 -0.0016
1708777172.4235 0.938 0.019 -0.0016 0.938 -0.0016
1708777172.4320 0.944 0.019 0.0016 0.944 0.0016
1708777172.4402 0.949 0.019 0.0047 0.950 0.0047
1708777172.4474 0.955 0.019 0.0047 0.955 0.0047
1708777172.4563 0.960 0.019 0.0062 0.961 0.0062
1708777172.4635 0.965 0.019 0.0062 0.966 0.0062
1708777172.4719 0.971 0.019 0.0093 0.972 0.0093
1708777172.4794 0.977 0.019 0.0124 0.977 0.0124
1708777172.4879 0.983 0.019 0.0140 0.983 0.0140
1708777172.4961 0.988 0.019 0.0155 0.989 0.0155
1708777172.5039 0.994 0.020 0.0171 0.994 0.0171
1708777172.5114 1.000 0.020 0.0186 1.000 0.0186
1708777172.5198 1.005 0.020 0.0217 1.006 0.0217
1708777172.5283 1.010 0.020 0.0233 1.011 0.0233
1708777172.5355 1.016 0.020 0.0233 1.016 0.0233
1708777172.5438 1.021 0.020 0.0233 1.022 0.0233
1708777172.5516 1.027 0.020 0.0248 1.027 0.0248
1708777172.5595 1.032 0.020 0.0295 1.033 0.0295
1708777172.5678 1.038 0.021 0.0310 1.038 0.0310
1708777172.5755 1.044 0.021 0.0310 1.044 0.0310
1708777172.5837 1.050 0.021 0.0310 1.050 0.0310
1708777172.5920 1.055 0.021 0.0326 1.055 0.0326
1708777172.5996 1.060 0.021 0.0310 1.060 0.0310
1708777172.6078 1.066 0.021 0.0341 1.066 0.0341
1708777172.6160 1.072 0.022 0.0388 1.072 0.0388
1708777172.6237 1.077 0.022 0.0404 1.078 0.0404
1708777172.6319 1.083 0.022 0.0404 1.083 0.0404
1708777172.6402 1.088 0.022 0.0419 1.089 0.0419
1708777172.6481 1.094 0.023 0.0466 1.095 0.0466
1708777172.6564 1.100 0.023 0.0512 1.101 0.0512
1708777172.6635 1.106 0.023 0.0497 1.106 0.0497
1708777172.6713 1.111 0.023 0.0481 1.111 0.0481
1708777172.6802 1.116 0.024 0.0528 1.117 0.0528
1708777172.6875 1.122 0.024 0.0574 1.122 0.0574
1708777172.6962 1.128 0.024 0.0590 1.129 0.0590
1708777172.7033 1.134 0.025 0.0590 1.134 0.0590
1708777172.7116 1.139 0.025 0.0605 1.139 0.0605
1708777172.7203 1.144 0.025 0.0636 1.144 0.0636
1708777172.7283 1.149 0.026 0.0652 1.150 0.0652
1708777172.7356 1.156 0.026 0.0667 1.157 0.0667
1708777172.7435 1.162 0.026 0.0683 1.163 0.0683
1708777172.7523 1.167 0.027 0.0714 1.167 0.0714
1708777172.7602 1.172 0.027 0.0714 1.172 0.0714
1708777172.7682 1.177 0.028 0.0621 1.178 0.0621
1708777172.7760 1.183 0.028 0.0621 1.184 0.0621
1708777172.7836 1.189 0.028 0.0699 1.190 0.0699
1708777172.7914 1.195 0.029 0.0792 1.196 0.0792
1708777172.8002 1.200 0.029 0.0807 1.201 0.0807
1708777172.8075 1.205 0.030 0.0730 1.206 0.0730
1708777172.8160 1.211 0.030 0.0730 1.212 0.0730
1708777172.8241 1.217 0.030 0.0776 1.218 0.0776
1708777172.8322 1.223 0.031 0.0823 1.223 0.0823
1708777172.8399 1.228 0.031 0.0823 1.229 0.0823
1708777172.8481 1.233 0.032 0.0823 1.234 0.0823
1708777172.8553 1.239 0.032 0.0823 1.240 0.0823
1708777172.8642 1.245 0.033 0.0838 1.246 0.0838
1708777172.8723 1.250 0.033 0.0869 1.251 0.0869
1708777172.8802 1.255 0.034 0.0854 1.256 0.0854
1708777172.8880 1.261 0.034 0.0869 1.262 0.0869
1708777172.8962 1.267 0.035 0.0869 1.268 0.0869
1708777172.9034 1.272 0.035 0.0869 1.273 0.0869
1708777172.9124 1.277 0.036 0.0885 1.279 0.0885
1708777172.9195 1.283 0.036 0.0900 1.284 0.0900
1708777172.9275 1.289 0.037 0.0900 1.290 0.0900
1708777172.9363 1.294 0.037 0.0916 1.295 0.0916
1708777172.9435 1.300 0.038 0.0916 1.301 0.0916
1708777172.9518 1.305 0.038 0.0931 1.307 0.0931
1708777172.9595 1.311 0.039 0.0931 1.312 0.0931
1708777172.9679 1.316 0.039 0.0916 1.317 0.0916
1708777172.9761 1.322 0.040 0.0900 1.324 0.0900
1708777172.9834 1.328 0.040 0.0916 1.329 0.0916
1708777172.9917 1.333 0.041 0.0947 1.335 0.0947
1708777173.0000 1.338 0.041 0.0962 1.340 0.0962
1708777173.0077 1.344 0.042 0.0962 1.345 0.0962
1708777173.0159 1.350 0.042 0.0947 1.352 0.0947
1708777173.0235 1.356 0.043 0.0931 1.357 0.0931
1708777173.0320 1.361 0.043 0.0962 1.362 0.0962
1708777173.0402 1.366 0.044 0.0978 1.368 0.0978
1708777173.0480 1.372 0.044 0.0978 1.374 0.0978
1708777173.0556 1.378 0.045 0.0962 1.380 0.0962
1708777173.0639 1.383 0.045 0.0947 1.385 0.0947
1708777173.0798 1.394 0.046 0.0931 1.396 0.0931
1708777173.0881 1.400 0.047 0.0931 1.402 0.0931
1708777173.0964 1.407 0.048 0.0916 1.408 0.0916
1708777173.1042 1.412 0.048 0.0900 1.413 0.0900
1708777173.1114 1.417 0.049 0.0900 1.418 0.0900
1708777173.1198 1.422 0.049 0.0869 1.424 0.0869
1708777173.1279 1.428 0.050 0.0838 1.430 0.0838
1708777173.1362 1.434 0.050 0.0823 1.435 0.0823
1708777173.1435 1.439 0.050 0.0823 1.441 0.0823
1708777173.1514 1.445 0.051 0.0792 1.446 0.0792
1708777173.1597 1.450 0.051 0.0761 1.452 0.0761
1708777173.1680 1.456 0.052 0.0761 1.457 0.0761
1708777173.1758 1.461 0.052 0.0745 1.463 0.0745
1708777173.1842 1.467 0.053 0.0699 1.469 0.0699
1708777173.1913 1.472 0.053 0.0667 1.474 0.0667
1708777173.2004 1.478 0.053 0.0667 1.480 0.0667
1708777173.2078 1.483 0.054 0.0667 1.485 0.0667
1708777173.2160 1.489 0.054 0.0652 1.491 0.0652
1708777173.2238 1.495 0.054 0.0605 1.497 0.0605
1708777173.2320 1.500 0.055 0.0559 1.502 0.0559
1708777173.2402 1.506 0.055 0.0559 1.508 0.0559
1708777173.2481 1.511 0.055 0.0559 1.513 0.0559
1708777173.2563 1.517 0.056 0.0543 1.519 0.0543
1708777173.2635 1.523 0.056 0.0481 1.525 0.0481
1708777173.2714 1.528 0.056 0.0481 1.530 0.0481
1708777173.2801 1.533 0.057 0.0497 1.535 0.0497
1708777173.2874 1.539 0.057 0.0466 1.541 0.0466
1708777173.2964 1.545 0.057 0.0419 1.547 0.0419
1708777173.3035 1.550 0.057 0.0388 1.552 0.0388
1708777173.3117 1.555 0.057 0.0373 1.557 0.0373
1708777173.3198 1.561 0.058 0.0357 1.563 0.0357
1708777173.3277 1.567 0.058 0.0341 1.569 0.0341
1708777173.3360 1.572 0.058 0.0310 1.574 0.0310
1708777173.3437 1.578 0.058 0.0295 1.580 0.0295
1708777173.3520 1.583 0.058 0.0295 1.585 0.0295
1708777173.3603 1.589 0.059 0.0279 1.591 0.0279
1708777173.3680 1.595 0.059 0.0248 1.597 0.0248
1708777173.3761 1.600 0.059 0.0217 1.602 0.0217
1708777173.3840 1.606 0.059 0.0217 1.608 0.0217
1708777173.3918 1.611 0.059 0.0202 1.613 0.0202
1708777173.4001 1.617 0.059 0.0186 1.619 0.0186
1708777173.4074 1.623 0.059 0.0140 1.625 0.0140
1708777173.4159 1.628 0.059 0.0124 1.630 0.0124
1708777173.4234 1.634 0.059 0.0109 1.636 0.0109
1708777173.4324 1.639 0.059 0.0109 1.641 0.0109
1708777173.4403 1.645 0.060 0.0109 1.647 0.0109
1708777173.4481 1.651 0.060 0.0078 1.653 0.0078
1708777173.4555 1.657 0.060 0.0062 1.659 0.0062
1708777173.4633 1.662 0.060 0.0062 1.664 0.0062
1708777173.4720 1.667 0.060 0.0031 1.669 0.0031
1708777173.4800 1.672 0.060 0.0016 1.674 0.0016
1708777173.4882 1.678 0.060 -0.0031 1.680 -0.0031
1708777173.4954 1.684 0.060 -0.0031 1.686 -0.0031
1708777173.5036 1.690 0.060 -0.0016 1.692 -0.0016
1708777173.5115 1.694 0.060 -0.0031 1.696 -0.0031
1708777173.5198 1.700 0.060 -0.0031 1.702 -0.0031
1708777173.5277 1.706 0.060 -0.0078 1.708 -0.0078
1708777173.5355 1.712 0.060 -0.0124 1.714 -0.0124
1708777173.5439 1.717 0.059 -0.0140 1.719 -0.0140
1708777173.5520 1.723 0.059 -0.0124 1.725 -0.0124
1708777173.5602 1.728 0.059 -0.0124 1.730 -0.0124
1708777173.5674 1.734 0.059 -0.0155 1.736 -0.0155
1708777173.5756 1.740 0.059 -0.0217 1.742 -0.0217
1708777173.5834 1.745 0.059 -0.0233 1.747 -0.0233
1708777173.5914 1.750 0.059 -0.0217 1.752 -0.0217
1708777173.6002 1.756 0.059 -0.0233 1.758 -0.0233
1708777173.6080 1.762 0.059 -0.0279 1.764 -0.0279
1708777173.6163 1.768 0.058 -0.0295 1.770 -0.0295
1708777173.6235 1.773 0.058 -0.0264 1.775 -0.0264
1708777173.6320 1.779 0.058 -0.0295 1.781 -0.0295
1708777173.6393 1.784 0.058 -0.0310 1.786 -0.0310
1708777173.6476 1.789 0.058 -0.0326 1.791 -0.0326
1708777173.6554 1.795 0.058 -0.0326 1.797 -0.0326
1708777173.6636 1.800 0.057 -0.0357 1.802 -0.0357
1708777173.6720 1.806 0.057 -0.0388 1.808 -0.0388
1708777173.6803 1.812 0.057 -0.0404 1.814 -0.0404
1708777173.6875 1.818 0.057 -0.0404 1.820 -0.0404
1708777173.6957 1.823 0.057 -0.0435 1.825 -0.0435
1708777173.7036 1.829 0.056 -0.0450 1.831 -0.0450
1708777173.7123 1.834 0.056 -0.0450 1.836 -0.0450
1708777173.7195 1.840 0.056 -0.0435 1.842 -0.0435
1708777173.7279 1.846 0.056 -0.0466 1.848 -0.0466
1708777173.7362 1.851 0.055 -0.0466 1.854 -0.0466
1708777173.7434 1.857 0.055 -0.0450 1.859 -0.0450
1708777173.7523 1.863 0.055 -0.0466 1.865 -0.0466
1708777173.7595 1.868 0.054 -0.0481 1.870 -0.0481
1708777173.7677 1.874 0.054 -0.0497 1.876 -0.0497
1708777173.7754 1.879 0.054 -0.0497 1.881 -0.0497
1708777173.7834 1.885 0.054 -0.0497 1.887 -0.0497
1708777173.7917 1.890 0.053 -0.0497 1.892 -0.0497
1708777173.7999 1.896 0.053 -0.0528 1.898 -0.0528
1708777173.8082 1.902 0.053 -0.0528 1.904 -0.0528
1708777173.8164 1.907 0.052 -0.0512 1.910 -0.0512
1708777173.8242 1.913 0.052 -0.0481 1.915 -0.0481
1708777173.8320 1.919 0.052 -0.0497 1.921 -0.0497
1708777173.8403 1.924 0.052 -0.0543 1.927 -0.0543
1708777173.8478 1.929 0.051 -0.0528 1.931 -0.0528
1708777173.8562 1.935 0.051 -0.0512 1.937 -0.0512
1708777173.8636 1.940 0.051 -0.0543 1.942 -0.0543
1708777173.8718 1.945 0.051 -0.0574 1.947 -0.0574
1708777173.8796 1.951 0.050 -0.0528 1.953 -0.0528
1708777173.8879 1.957 0.050 -0.0466 1.959 -0.0466
1708777173.8957 1.962 0.050 -0.0481 1.965 -0.0481
1708777173.9040 1.968 0.049 -0.0512 1.970 -0.0512
1708777173.9118 1.974 0.049 -0.0512 1.976 -0.0512
1708777173.9196 1.980 0.049 -0.0435 1.982 -0.0435
1708777173.9275 1.985 0.049 -0.0357 1.987 -0.0357
1708777173.9358 1.990 0.048 -0.0373 1.992 -0.0373
1708777173.9436 1.996 0.048 -0.0404 1.998 -0.0404
1708777173.9517 2.002 0.048 -0.0404 2.004 -0.0404
1708777173.9600 2.007 0.048 -0.0373 2.009 -0.0373
1708777173.9678 2.013 0.048 -0.0310 2.015 -0.0310
1708777173.9763 2.019 0.047 -0.0295 2.021 -0.0295
1708777173.9835 2.025 0.047 -0.0295 2.027 -0.0295
1708777173.9924 2.030 0.047 -0.0310 2.032 -0.0310
1708777173.9999 2.035 0.047 -0.0295 2.037 -0.0295
1708777174.0081 2.041 0.047 -0.0248 2.043 -0.0248
1708777174.0160 2.046 0.047 -0.0233 2.049 -0.0233
1708777174.0242 2.053 0.046 -0.0233 2.055 -0.0233
1708777174.0324 2.058 0.046 -0.0233 2.060 -0.0233
1708777174.0400 2.063 0.046 -0.0217 2.066 -0.0217
1708777174.0476 2.069 0.046 -0.0186 2.071 -0.0186
1708777174.0560 2.075 0.046 -0.0186 2.077 -0.0186
1708777174.0637 2.080 0.046 -0.0186 2.083 -0.0186
1708777174.0718 2.086 0.046 -0.0171 2.088 -0.0171
1708777174.0796 2.091 0.046 -0.0171 2.094 -0.0171
1708777174.0874 2.097 0.046 -0.0171 2.099 -0.0171
1708777174.0958 2.102 0.045 -0.0186 2.105 -0.0186
1708777174.1042 2.108 0.045 -0.0171 2.110 -0.0171
1708777174.1115 2.114 0.045 -0.0124 2.116 -0.0124
1708777174.1198 2.119 0.045 -0.0155 2.122 -0.0155
1708777174.1280 2.125 0.045 -0.0171 2.127 -0.0171
1708777174.1358 2.130 0.045 -0.0124 2.132 -0.0124
1708777174.1443 2.135 0.045 -0.0109 2.138 -0.0109
1708777174.1515 2.141 0.045 -0.0124 2.144 -0.0124
1708777174.1594 2.147 0.045 -0.0140 2.149 -0.0140
1708777174.1678 2.152 0.045 -0.0124 2.154 -0.0124
