% Encoder logfile
% 1 	Time (sec)
% 2,3 	enc left, right
% 4,5 	encoder change left, right
1708780849.6827 0 0 0 0
1708780849.6914 0 0 0 0
1708780849.6994 0 0 0 0
1708780849.7061 0 0 0 0
1708780849.7135 2 1 2 1
1708780849.7218 9 8 7 7
1708780849.7297 17 14 8 6
1708780849.7380 24 19 7 5
1708780849.7457 29 25 5 6
1708780849.7536 38 34 9 9
1708780849.7618 51 45 13 11
1708780849.7704 65 56 14 11
1708780849.7783 77 67 12 11
1708780849.7865 92 81 15 14
1708780849.7943 109 93 17 12
1708780849.8021 126 105 17 12
1708780849.8104 144 119 18 14
1708780849.8187 164 133 20 14
1708780849.8266 183 147 19 14
1708780849.8347 203 162 20 15
1708780849.8427 224 177 21 15
1708780849.8562 247 191 23 14
1708780849.8580 269 206 22 15
1708780849.8665 289 220 20 14
1708780849.8745 309 234 20 14
1708780849.8827 329 251 20 17
1708780849.8907 350 266 21 15
1708780849.8985 370 280 20 14
1708780849.9068 389 295 19 15
1708780849.9141 408 310 19 15
1708780849.9220 427 325 19 15
1708780849.9301 445 342 18 17
1708780849.9390 464 359 19 17
1708780849.9460 482 375 18 16
1708780849.9544 499 391 17 16
1708780849.9627 517 410 18 19
1708780849.9703 536 429 19 19
1708780849.9827 557 448 21 19
1708780849.9868 575 466 18 18
1708780849.9941 594 485 19 19
1708780850.0027 606 496 12 11
1708780850.0121 618 511 12 15
1708780850.0181 639 533 21 22
1708780850.0266 661 552 22 19
1708780850.0341 675 564 14 12
1708780850.0419 689 577 14 13
1708780850.0503 704 593 15 16
1708780850.0578 721 613 17 20
1708780850.0666 740 633 19 20
1708780850.0738 759 651 19 18
1708780850.0822 777 669 18 18
1708780850.0908 793 686 16 17
1708780850.0980 807 703 14 17
1708780850.1062 823 721 16 18
1708780850.1139 838 738 15 17
1708780850.1222 854 756 16 18
1708780850.1305 868 775 14 19
1708780850.1391 882 794 14 19
1708780850.1462 897 813 15 19
1708780850.1544 915 832 18 19
1708780850.1623 929 850 14 18
1708780850.1705 943 866 14 16
1708780850.1785 957 884 14 18
1708780850.1863 971 904 14 20
1708780850.1952 984 925 13 21
1708780850.2024 998 944 14 19
1708780850.2106 1014 965 16 21
1708780850.2179 1028 983 14 18
1708780850.2262 1040 1001 12 18
1708780850.2340 1052 1019 12 18
1708780850.2427 1067 1039 15 20
1708780850.2502 1084 1058 17 19
1708780850.2609 1098 1076 14 18
1708780850.2667 1109 1096 11 20
1708780850.2741 1122 1119 13 23
1708780850.2824 1136 1137 14 18
1708780850.2898 1151 1152 15 15
1708780850.2988 1166 1171 15 19
1708780850.3063 1180 1193 14 22
1708780850.3148 1192 1215 12 22
1708780850.3223 1205 1234 13 19
1708780850.3310 1222 1251 17 17
1708780850.3392 1239 1270 17 19
1708780850.3466 1254 1291 15 21
1708780850.3538 1266 1313 12 22
1708780850.3626 1279 1329 13 16
1708780850.3701 1294 1343 15 14
1708780850.3782 1312 1361 18 18
1708780850.3868 1327 1383 15 22
1708780850.3938 1341 1403 14 20
1708780850.4021 1356 1419 15 16
1708780850.4103 1371 1435 15 16
1708780850.4180 1387 1453 16 18
1708780850.4258 1403 1473 16 20
1708780850.4343 1417 1491 14 18
1708780850.4425 1431 1509 14 18
1708780850.4503 1448 1528 17 19
1708780850.4588 1465 1547 17 19
1708780850.4660 1481 1564 16 17
1708780850.4740 1495 1582 14 18
1708780850.4824 1509 1599 14 17
1708780850.4904 1525 1618 16 19
1708780850.4985 1543 1637 18 19
1708780850.5058 1559 1654 16 17
1708780850.5140 1573 1671 14 17
1708780850.5220 1586 1689 13 18
1708780850.5302 1601 1709 15 20
1708780850.5382 1619 1729 18 20
1708780850.5459 1635 1745 16 16
1708780850.5553 1650 1762 15 17
1708780850.5629 1663 1781 13 19
1708780850.5900 1712 1838 49 57
1708780850.5945 1728 1857 16 19
1708780850.6013 1744 1877 16 20
1708780850.6106 1753 1891 9 14
1708780850.6172 1763 1906 10 15
1708780850.6250 1779 1925 16 19
1708780850.6350 1796 1945 17 20
1708780850.6412 1810 1963 14 18
1708780850.6494 1824 1985 14 22
1708780850.6579 1836 2003 12 18
1708780850.6655 1850 2020 14 17
1708780850.6732 1866 2039 16 19
1708780850.6826 1881 2056 15 17
1708780850.6896 1893 2073 12 17
1708780850.6970 1907 2093 14 20
1708780850.7068 1923 2110 16 17
1708780850.7133 1937 2125 14 15
1708780850.7209 1953 2145 16 20
1708780850.7308 1966 2164 13 19
1708780850.7372 1978 2182 12 18
1708780850.7456 1993 2201 15 19
1708780850.7547 2010 2218 17 17
1708780850.7612 2027 2236 17 18
1708780850.7689 2043 2256 16 20
1708780850.7787 2054 2271 11 15
1708780850.7850 2068 2286 14 15
1708780850.7934 2085 2304 17 18
1708780850.8021 2102 2322 17 18
1708780850.8089 2118 2342 16 20
1708780850.8178 2134 2359 16 17
1708780850.8267 2148 2373 14 14
1708780850.8332 2165 2390 17 17
1708780850.8416 2181 2409 16 19
1708780850.8504 2195 2425 14 16
1708780850.8569 2211 2441 16 16
1708780850.8657 2231 2459 20 18
1708780850.8749 2248 2473 17 14
1708780850.8814 2265 2489 17 16
1708780850.8898 2285 2506 20 17
1708780850.8986 2301 2522 16 16
1708780850.9051 2318 2537 17 15
1708780850.9147 2336 2553 18 16
1708780850.9224 2353 2567 17 14
1708780850.9289 2372 2582 19 15
1708780850.9377 2391 2598 19 16
1708780850.9465 2408 2612 17 14
1708780850.9531 2428 2626 20 14
1708780850.9619 2449 2641 21 15
1708780850.9707 2466 2655 17 14
1708780850.9772 2484 2669 18 14
1708780850.9850 2506 2685 22 16
1708780850.9944 2526 2698 20 13
1708780851.0013 2545 2711 19 13
1708780851.0093 2565 2727 20 16
1708780851.0199 2584 2741 19 14
1708780851.0254 2603 2754 19 13
1708780851.0339 2625 2766 22 12
1708780851.0423 2643 2778 18 12
1708780851.0496 2662 2792 19 14
1708780851.0573 2683 2807 21 15
1708780851.0661 2704 2819 21 12
1708780851.0737 2726 2830 22 11
1708780851.0814 2746 2842 20 12
1708780851.0908 2764 2856 18 14
1708780851.0971 2785 2869 21 13
1708780851.1161 2807 2882 22 13
1708780851.1184 2825 2894 18 12
1708780851.1320 2840 2904 15 10
1708780851.1343 2857 2913 17 9
1708780851.1414 2871 2916 14 3
1708780851.1453 2886 2918 15 2
1708780851.1531 2898 2920 12 2
1708780851.1621 2906 2931 8 11
1708780851.1697 2919 2947 13 16
1708780851.1773 2939 2961 20 14
1708780851.1861 2959 2971 20 10
1708780851.1934 2976 2981 17 10
1708780851.2012 2993 2994 17 13
1708780851.2101 3010 3008 17 14
1708780851.2178 3028 3021 18 13
1708780851.2250 3047 3034 19 13
1708780851.2342 3065 3048 18 14
1708780851.2414 3082 3060 17 12
1708780851.2493 3102 3074 20 14
1708780851.2582 3122 3089 20 15
1708780851.2658 3141 3104 19 15
1708780851.2746 3161 3118 20 14
1708780851.2823 3179 3130 18 12
1708780851.2895 3199 3145 20 15
1708780851.2973 3218 3160 19 15
1708780851.3061 3235 3175 17 15
1708780851.3137 3253 3188 18 13
1708780851.3213 3274 3204 21 16
1708780851.3302 3293 3220 19 16
1708780851.3378 3310 3234 17 14
1708780851.3453 3328 3249 18 15
1708780851.3545 3347 3264 19 15
1708780851.3610 3365 3280 18 16
1708780851.3691 3383 3295 18 15
1708780851.3780 3400 3310 17 15
1708780851.3856 3417 3326 17 16
1708780851.3930 3435 3342 18 16
1708780851.4029 3453 3357 18 15
1708780851.4096 3468 3372 15 15
1708780851.4174 3485 3389 17 17
1708780851.4264 3502 3406 17 17
1708780851.4330 3517 3422 15 16
1708780851.4414 3535 3440 18 18
1708780851.4503 3551 3456 16 16
1708780851.4577 3567 3474 16 18
1708780851.4655 3584 3493 17 19
1708780851.4744 3600 3510 16 17
1708780851.4809 3614 3527 14 17
1708780851.4894 3628 3545 14 18
1708780851.4982 3641 3562 13 17
1708780851.5056 3657 3582 16 20
1708780851.5134 3675 3602 18 20
1708780851.5222 3689 3620 14 18
1708780851.5298 3702 3638 13 18
1708780851.5376 3716 3658 14 20
1708780851.5469 3731 3678 15 20
1708780851.5534 3745 3696 14 18
1708780851.5611 3759 3715 14 19
1708780851.5700 3771 3735 12 20
1708780851.5769 3783 3755 12 20
1708780851.5858 3798 3778 15 23
1708780851.5940 3813 3797 15 19
1708780851.6015 3827 3817 14 20
1708780851.6093 3840 3839 13 22
1708780851.6180 3852 3859 12 20
1708780851.6256 3866 3878 14 19
1708780851.6342 3882 3898 16 20
1708780851.6430 3896 3919 14 21
1708780851.6495 3909 3941 13 22
1708780851.6574 3921 3962 12 21
1708780851.6664 3934 3980 13 18
1708780851.6730 3949 3998 15 18
1708780851.6813 3964 4019 15 21
1708780851.6908 3975 4039 11 20
1708780851.6972 3987 4059 12 20
1708780851.7058 4003 4080 16 21
1708780851.7153 4017 4099 14 19
1708780851.7215 4031 4118 14 19
1708780851.7295 4045 4139 14 21
1708780851.7411 4058 4157 13 18
1708780851.7453 4072 4174 14 17
1708780851.7536 4087 4191 15 17
1708780851.7629 4097 4205 10 14
1708780851.7697 4109 4222 12 17
1708780851.7771 4126 4244 17 22
1708780851.7876 4142 4264 16 20
1708780851.7933 4154 4281 12 17
1708780851.8018 4167 4298 13 17
1708780851.8100 4179 4313 12 15
1708780851.8175 4194 4332 15 19
1708780851.8257 4210 4353 16 21
1708780851.8346 4224 4372 14 19
1708780851.8418 4237 4388 13 16
1708780851.8495 4251 4406 14 18
1708780851.8583 4266 4425 15 19
1708780851.8657 4282 4444 16 19
1708780851.8734 4299 4465 17 21
1708780851.8823 4313 4484 14 19
1708780851.8895 4325 4500 12 16
1708780851.8972 4339 4519 14 19
1708780851.9069 4356 4538 17 19
1708780851.9134 4372 4558 16 20
1708780851.9211 4388 4578 16 20
1708780851.9309 4402 4596 14 18
1708780851.9375 4416 4613 14 17
1708780851.9450 4432 4632 16 19
1708780851.9547 4448 4649 16 17
1708780851.9612 4462 4666 14 17
1708780851.9689 4479 4685 17 19
1708780851.9787 4494 4702 15 17
1708780851.9856 4509 4718 15 16
1708780851.9938 4527 4737 18 19
1708780852.0027 4544 4755 17 18
1708780852.0092 4560 4771 16 16
1708780852.0171 4576 4787 16 16
1708780852.0260 4592 4803 16 16
1708780852.0336 4609 4819 17 16
1708780852.0409 4628 4837 19 18
1708780852.0508 4645 4855 17 18
1708780852.0573 4661 4870 16 15
1708780852.0650 4679 4887 18 17
1708780852.0739 4696 4902 17 15
1708780852.0816 4713 4916 17 14
1708780852.0890 4732 4931 19 15
1708780852.0989 4751 4947 19 16
1708780852.1054 4768 4961 17 14
1708780852.1134 4787 4977 19 16
1708780852.1223 4804 4990 17 13
1708780852.1290 4822 5004 18 14
1708780852.1376 4842 5018 20 14
1708780852.1465 4860 5032 18 14
1708780852.1548 4879 5047 19 15
1708780852.1617 4900 5064 21 17
1708780852.1708 4919 5080 19 16
1708780852.1773 4936 5092 17 12
1708780852.1856 4955 5104 19 12
1708780852.1945 4976 5118 21 14
1708780852.2011 4997 5134 21 16
1708780852.2091 5016 5149 19 15
1708780852.2184 5034 5162 18 13
1708780852.2251 5054 5174 20 12
1708780852.2336 5075 5189 21 15
1708780852.2441 5095 5205 20 16
1708780852.2497 5114 5218 19 13
1708780852.2578 5135 5231 21 13
1708780852.2669 5152 5243 17 12
1708780852.2736 5170 5258 18 15
1708780852.2811 5191 5275 21 17
1708780852.2903 5212 5288 21 13
1708780852.2970 5230 5299 18 11
1708780852.3051 5249 5311 19 12
1708780852.3143 5268 5325 19 14
1708780852.3209 5287 5340 19 15
1708780852.3290 5307 5354 20 14
1708780852.3384 5325 5367 18 13
1708780852.3449 5343 5380 18 13
1708780852.3546 5364 5395 21 15
1708780852.3623 5383 5409 19 14
1708780852.3689 5403 5426 20 17
1708780852.3775 5422 5440 19 14
1708780852.3873 5438 5452 16 12
1708780852.3936 5456 5467 18 15
1708780852.4014 5478 5483 22 16
1708780852.4104 5496 5497 18 14
1708780852.4169 5512 5511 16 14
1708780852.4249 5531 5526 19 15
1708780852.4345 5548 5540 17 14
1708780852.4418 5567 5555 19 15
1708780852.4490 5589 5572 22 17
1708780852.4589 5608 5587 19 15
1708780852.4655 5622 5600 14 13
1708780852.4735 5639 5616 17 16
1708780852.4824 5658 5633 19 17
1708780852.4894 5677 5650 19 17
1708780852.4973 5694 5666 17 16
1708780852.5065 5710 5681 16 15
1708780852.5131 5726 5698 16 17
1708780852.5209 5744 5714 18 16
1708780852.5302 5759 5729 15 15
1708780852.5379 5774 5745 15 16
1708780852.5450 5793 5763 19 18
1708780852.5542 5811 5779 18 16
1708780852.5610 5825 5794 14 15
1708780852.5690 5840 5811 15 17
1708780852.5786 5856 5832 16 21
1708780852.5853 5874 5851 18 19
1708780852.5931 5892 5869 18 18
1708780852.6023 5904 5884 12 15
1708780852.6089 5916 5901 12 17
1708780852.6170 5931 5921 15 20
1708780852.6272 5948 5940 17 19
1708780852.6333 5963 5958 15 18
1708780852.6410 5978 5978 15 20
1708780852.6502 5991 5995 13 17
1708780852.6583 6005 6014 14 19
1708780852.6654 6022 6034 17 20
1708780852.6744 6039 6053 17 19
1708780852.6809 6052 6072 13 19
1708780852.6896 6064 6090 12 18
1708780852.6987 6078 6108 14 18
1708780852.7049 6094 6128 16 20
1708780852.7148 6110 6149 16 21
1708780852.7229 6122 6166 12 17
1708780852.7297 6134 6183 12 17
1708780852.7370 6148 6204 14 21
1708780852.7467 6162 6224 14 20
1708780852.7533 6175 6243 13 19
1708780852.7612 6190 6263 15 20
1708780852.7701 6203 6282 13 19
1708780852.7777 6216 6301 13 19
1708780852.7854 6231 6320 15 19
1708780852.7950 6246 6340 15 20
1708780852.8018 6258 6360 12 20
1708780852.8094 6272 6382 14 22
1708780852.8183 6286 6401 14 19
1708780852.8249 6299 6419 13 18
1708780852.8339 6313 6439 14 20
1708780852.8430 6326 6459 13 20
1708780852.8494 6341 6480 15 21
1708780852.8574 6357 6502 16 22
1708780852.8664 6370 6520 13 18
1708780852.8729 6381 6537 11 17
1708780852.8820 6396 6557 15 20
1708780852.8905 6412 6577 16 20
1708780852.8970 6429 6597 17 20
1708780852.9049 6443 6618 14 21
1708780852.9150 6453 6635 10 17
1708780852.9218 6466 6651 13 16
1708780852.9297 6484 6670 18 19
1708780852.9388 6500 6689 16 19
1708780852.9450 6514 6708 14 19
1708780852.9529 6528 6727 14 19
1708780852.9621 6542 6744 14 17
1708780852.9698 6557 6761 15 17
1708780852.9778 6575 6779 18 18
1708780852.9865 6590 6798 15 19
1708780852.9938 6603 6815 13 17
1708780853.0017 6618 6833 15 18
1708780853.0107 6635 6850 17 17
1708780853.0175 6653 6868 18 18
1708780853.0258 6668 6886 15 18
1708780853.0349 6682 6904 14 18
1708780853.0411 6699 6921 17 17
1708780853.0494 6717 6938 18 17
1708780853.0583 6733 6953 16 15
1708780853.0649 6751 6970 18 17
1708780853.0738 6769 6987 18 17
1708780853.0829 6784 7003 15 16
1708780853.0892 6801 7020 17 17
1708780853.0971 6821 7037 20 17
1708780853.1061 6837 7051 16 14
1708780853.1139 6853 7063 16 12
1708780853.1217 6873 7080 20 17
1708780853.1308 6894 7098 21 18
1708780853.1374 6912 7113 18 15
1708780853.1451 6929 7127 17 14
1708780853.1542 6946 7141 17 14
1708780853.1612 6965 7155 19 14
1708780853.1693 6986 7170 21 15
1708780853.1782 7005 7184 19 14
1708780853.1853 7024 7198 19 14
1708780853.1944 7045 7214 21 16
1708780853.2025 7064 7227 19 13
1708780853.2099 7082 7241 18 14
1708780853.2177 7101 7256 19 15
1708780853.2266 7120 7269 19 13
1708780853.2331 7139 7281 19 12
1708780853.2417 7160 7295 21 14
1708780853.2506 7178 7309 18 14
1708780853.2569 7198 7323 20 14
1708780853.2658 7219 7337 21 14
1708780853.2747 7237 7350 18 13
1708780853.2813 7257 7364 20 14
1708780853.2900 7278 7380 21 16
1708780853.2989 7295 7393 17 13
1708780853.3053 7314 7405 19 12
1708780853.3133 7334 7419 20 14
1708780853.3222 7353 7433 19 14
1708780853.3299 7373 7447 20 14
1708780853.3371 7395 7462 22 15
1708780853.3466 7413 7476 18 14
1708780853.3531 7429 7489 16 13
1708780853.3612 7448 7503 19 14
1708780853.3740 7469 7516 21 13
1708780853.3797 7491 7530 22 14
1708780853.3857 7512 7545 21 15
1708780853.3950 7528 7559 16 14
1708780853.4018 7540 7570 12 11
1708780853.4096 7559 7584 19 14
1708780853.4188 7581 7600 22 16
1708780853.4253 7601 7616 20 16
1708780853.4346 7619 7631 18 15
1708780853.4423 7636 7644 17 13
1708780853.4490 7654 7658 18 14
1708780853.4569 7673 7675 19 17
1708780853.4669 7690 7689 17 14
1708780853.4736 7707 7703 17 14
1708780853.4813 7727 7719 20 16
1708780853.4904 7745 7733 18 14
1708780853.4972 7761 7748 16 15
1708780853.5051 7779 7765 18 17
1708780853.5140 7796 7782 17 17
1708780853.5216 7813 7797 17 15
1708780853.5292 7832 7814 19 17
1708780853.5381 7850 7829 18 15
1708780853.5454 7866 7843 16 14
1708780853.5532 7883 7860 17 17
1708780853.5620 7901 7877 18 17
1708780853.5695 7920 7893 19 16
1708780853.5775 7938 7909 18 16
1708780853.5868 7954 7924 16 15
1708780853.5931 7971 7941 17 17
1708780853.6010 7991 7957 20 16
1708780853.6110 8006 7972 15 15
1708780853.6174 8020 7989 14 17
1708780853.6253 8038 8007 18 18
1708780853.6343 8057 8022 19 15
1708780853.6416 8076 8036 19 14
1708780853.6494 8094 8054 18 18
1708780853.6587 8110 8071 16 17
1708780853.6655 8127 8087 17 16
1708780853.6729 8147 8103 20 16
1708780853.6828 8166 8119 19 16
1708780853.6890 8183 8134 17 15
1708780853.6969 8201 8148 18 14
1708780853.7070 8218 8161 17 13
1708780853.7137 8237 8177 19 16
1708780853.7215 8256 8194 19 17
1708780853.7305 8274 8207 18 13
1708780853.7381 8292 8220 18 13
1708780853.7450 8313 8236 21 16
1708780853.7545 8333 8253 20 17
1708780853.7612 8349 8264 16 11
1708780853.7692 8369 8274 20 10
1708780853.7780 8390 8287 21 13
1708780853.7857 8410 8301 20 14
1708780853.7944 8431 8316 21 15
1708780853.8022 8452 8328 21 12
1708780853.8089 8473 8338 21 10
1708780853.8172 8494 8350 21 12
1708780853.8262 8513 8363 19 13
1708780853.8339 8535 8374 22 11
1708780853.8412 8558 8386 23 12
1708780853.8502 8580 8397 22 11
1708780853.8578 8601 8408 21 11
1708780853.8658 8625 8421 24 13
1708780853.8747 8648 8433 23 12
1708780853.8812 8670 8443 22 10
1708780853.8892 8692 8453 22 10
1708780853.8983 8712 8463 20 10
1708780853.9050 8735 8473 23 10
1708780853.9149 8760 8484 25 11
1708780853.9227 8783 8494 23 10
1708780853.9293 8810 8505 27 11
1708780853.9372 8833 8516 23 11
1708780853.9468 8853 8524 20 8
1708780853.9533 8875 8532 22 8
1708780853.9616 8902 8542 27 10
1708780853.9710 8926 8552 24 10
1708780853.9775 8949 8562 23 10
1708780853.9852 8974 8572 25 10
1708780853.9949 8997 8580 23 8
1708780854.0015 9021 8588 24 8
1708780854.0094 9047 8599 26 11
1708780854.0185 9069 8609 22 10
1708780854.0253 9091 8617 22 8
1708780854.0333 9117 8625 26 8
1708780854.0434 9143 8633 26 8
1708780854.0491 9167 8642 24 9
1708780854.0573 9193 8654 26 12
1708780854.0662 9217 8664 24 10
1708780854.0739 9239 8673 22 9
1708780854.0817 9264 8682 25 9
1708780854.0902 9289 8691 25 9
1708780854.0979 9314 8700 25 9
1708780854.1057 9339 8712 25 12
1708780854.1144 9361 8723 22 11
1708780854.1210 9383 8732 22 9
1708780854.1290 9406 8742 23 10
1708780854.1389 9428 8751 22 9
1708780854.1452 9452 8761 24 10
1708780854.1545 9476 8773 24 12
1708780854.1622 9496 8784 20 11
1708780854.1699 9517 8795 21 11
1708780854.1779 9541 8807 24 12
1708780854.1870 9563 8818 22 11
1708780854.1933 9583 8830 20 12
1708780854.2009 9604 8842 21 12
1708780854.2109 9624 8853 20 11
1708780854.2175 9644 8865 20 12
1708780854.2254 9667 8879 23 14
1708780854.2344 9687 8892 20 13
1708780854.2419 9705 8905 18 13
1708780854.2495 9727 8919 22 14
1708780854.2584 9749 8933 22 14
1708780854.2650 9769 8945 20 12
1708780854.2739 9786 8959 17 14
1708780854.2830 9801 8974 15 15
1708780854.2906 9821 8990 20 16
1708780854.2978 9843 9006 22 16
1708780854.3099 9861 9022 18 16
1708780854.3131 9875 9038 14 16
1708780854.3209 9888 9052 13 14
1708780854.3310 9896 9060 8 8
1708780854.3413 9909 9072 13 12
1708780854.3450 9929 9089 20 17
1708780854.3555 9949 9109 20 20
1708780854.3612 9965 9119 16 10
1708780854.3694 9976 9133 11 14
1708780854.3785 9985 9154 9 21
1708780854.3852 9996 9175 11 21
1708780854.3931 10008 9193 12 18
1708780854.4024 10020 9208 12 15
1708780854.4092 10032 9227 12 19
1708780854.4174 10046 9247 14 20
1708780854.4267 10059 9267 13 20
1708780854.4333 10071 9288 12 21
1708780854.4412 10082 9309 11 21
1708780854.4506 10093 9327 11 18
1708780854.4573 10106 9347 13 20
1708780854.4655 10119 9368 13 21
1708780854.4763 10130 9385 11 17
1708780854.4818 10139 9405 9 20
1708780854.4894 10151 9428 12 23
1708780854.4985 10163 9449 12 21
1708780854.5052 10175 9468 12 19
1708780854.5143 10189 9489 14 21
1708780854.5223 10196 9510 7 21
1708780854.5290 10208 9530 12 20
1708780854.5371 10224 9553 16 23
1708780854.5469 10237 9572 13 19
1708780854.5537 10248 9591 11 19
1708780854.5617 10260 9615 12 24
1708780854.5709 10274 9636 14 21
1708780854.5776 10288 9656 14 20
1708780854.5856 10301 9676 13 20
1708780854.5946 10312 9696 11 20
1708780854.6015 10325 9717 13 21
1708780854.6095 10341 9737 16 20
1708780854.6187 10354 9755 13 18
1708780854.6254 10366 9775 12 20
1708780854.6338 10380 9798 14 23
1708780854.6432 10395 9817 15 19
1708780854.6498 10411 9834 16 17
1708780854.6578 10426 9854 15 20
1708780854.6670 10438 9873 12 19
1708780854.6738 10451 9892 13 19
1708780854.6818 10467 9912 16 20
1708780854.6908 10483 9931 16 19
1708780854.7001 10498 9948 15 17
1708780854.7059 10514 9968 16 20
