% Pose without folding and reset (log_20240224_142048.952/log_pose_abs.txt)
% 1 	Time (sec)
% 2,3 	Position x,y (m)
% 4 	heading (rad)
% 5 	Driven distance (m) - signed
% 6 	Turned angle (rad) - signed
1708780849.6827 0.000 0.000 0.0000 0.000 0.0000
1708780849.6914 0.000 0.000 0.0000 0.000 0.0000
1708780849.6994 0.000 0.000 0.0000 0.000 0.0000
1708780849.7061 0.000 0.000 0.0000 0.000 0.0000
1708780849.7135 0.000 0.000 0.0016 0.000 0.0016
1708780849.7218 0.003 0.000 0.0016 0.003 0.0016
1708780849.7297 0.005 0.000 -0.0016 0.005 -0.0016
1708780849.7380 0.008 -0.000 -0.0047 0.008 -0.0047
1708780849.7457 0.010 -0.000 -0.0031 0.010 -0.0031
1708780849.7536 0.013 -0.000 -0.0031 0.013 -0.0031
1708780849.7618 0.018 -0.000 -0.0062 0.018 -0.0062
1708780849.7704 0.022 -0.000 -0.0109 0.022 -0.0109
1708780849.7783 0.027 -0.000 -0.0124 0.027 -0.0124
1708780849.7865 0.032 -0.000 -0.0140 0.032 -0.0140
1708780849.7943 0.038 -0.000 -0.0217 0.038 -0.0217
1708780849.8021 0.043 -0.000 -0.0295 0.043 -0.0295
1708780849.8104 0.049 -0.001 -0.0357 0.049 -0.0357
1708780849.8187 0.056 -0.001 -0.0450 0.056 -0.0450
1708780849.8266 0.062 -0.001 -0.0528 0.062 -0.0528
1708780849.8347 0.068 -0.002 -0.0605 0.068 -0.0605
1708780849.8427 0.075 -0.002 -0.0699 0.075 -0.0699
1708780849.8580 0.089 -0.003 -0.0947 0.089 -0.0947
1708780849.8665 0.095 -0.004 -0.1040 0.096 -0.1040
1708780849.8745 0.102 -0.004 -0.1133 0.102 -0.1133
1708780849.8827 0.109 -0.005 -0.1180 0.109 -0.1180
1708780849.8907 0.116 -0.006 -0.1273 0.116 -0.1273
1708780849.8985 0.122 -0.007 -0.1366 0.122 -0.1366
1708780849.9068 0.128 -0.008 -0.1428 0.129 -0.1428
1708780849.9141 0.135 -0.009 -0.1490 0.135 -0.1490
1708780849.9220 0.141 -0.010 -0.1552 0.141 -0.1552
1708780849.9301 0.147 -0.011 -0.1568 0.148 -0.1568
1708780849.9390 0.154 -0.012 -0.1599 0.155 -0.1599
1708780849.9460 0.160 -0.013 -0.1630 0.161 -0.1630
1708780849.9544 0.167 -0.014 -0.1645 0.167 -0.1645
1708780849.9627 0.174 -0.015 -0.1630 0.174 -0.1630
1708780849.9703 0.181 -0.016 -0.1630 0.182 -0.1630
1708780849.9827 0.188 -0.017 -0.1661 0.189 -0.1661
1708780849.9868 0.195 -0.019 -0.1661 0.196 -0.1661
1708780849.9941 0.202 -0.020 -0.1661 0.203 -0.1661
1708780850.0027 0.206 -0.020 -0.1676 0.207 -0.1676
1708780850.0121 0.211 -0.021 -0.1630 0.213 -0.1630
1708780850.0181 0.219 -0.023 -0.1614 0.221 -0.1614
1708780850.0266 0.227 -0.024 -0.1661 0.228 -0.1661
1708780850.0341 0.232 -0.025 -0.1692 0.233 -0.1692
1708780850.0419 0.237 -0.026 -0.1707 0.238 -0.1707
1708780850.0503 0.242 -0.027 -0.1692 0.244 -0.1692
1708780850.0578 0.249 -0.028 -0.1645 0.251 -0.1645
1708780850.0666 0.256 -0.029 -0.1630 0.259 -0.1630
1708780850.0738 0.263 -0.030 -0.1645 0.266 -0.1645
1708780850.0822 0.270 -0.031 -0.1645 0.272 -0.1645
1708780850.0908 0.276 -0.032 -0.1630 0.279 -0.1630
1708780850.0980 0.282 -0.033 -0.1583 0.284 -0.1583
1708780850.1062 0.288 -0.034 -0.1552 0.291 -0.1552
1708780850.1139 0.294 -0.035 -0.1521 0.297 -0.1521
1708780850.1222 0.301 -0.036 -0.1490 0.303 -0.1490
1708780850.1305 0.307 -0.037 -0.1413 0.309 -0.1413
1708780850.1391 0.313 -0.038 -0.1335 0.316 -0.1335
1708780850.1462 0.319 -0.039 -0.1273 0.322 -0.1273
1708780850.1544 0.326 -0.039 -0.1257 0.329 -0.1257
1708780850.1623 0.332 -0.040 -0.1195 0.335 -0.1195
1708780850.1705 0.338 -0.041 -0.1164 0.341 -0.1164
1708780850.1785 0.344 -0.042 -0.1102 0.347 -0.1102
1708780850.1863 0.350 -0.042 -0.1009 0.353 -0.1009
1708780850.1952 0.357 -0.043 -0.0885 0.360 -0.0885
1708780850.2024 0.363 -0.043 -0.0807 0.366 -0.0807
1708780850.2106 0.370 -0.044 -0.0730 0.373 -0.0730
1708780850.2179 0.376 -0.044 -0.0667 0.379 -0.0667
1708780850.2262 0.381 -0.045 -0.0574 0.385 -0.0574
1708780850.2340 0.387 -0.045 -0.0481 0.390 -0.0481
1708780850.2427 0.394 -0.045 -0.0404 0.397 -0.0404
1708780850.2502 0.400 -0.046 -0.0373 0.404 -0.0373
1708780850.2609 0.406 -0.046 -0.0310 0.410 -0.0310
1708780850.2667 0.412 -0.046 -0.0171 0.415 -0.0171
1708780850.2741 0.419 -0.046 -0.0016 0.422 -0.0016
1708780850.2824 0.425 -0.046 0.0047 0.428 0.0047
1708780850.2898 0.431 -0.046 0.0047 0.434 0.0047
1708780850.2988 0.437 -0.046 0.0109 0.440 0.0109
1708780850.3063 0.444 -0.046 0.0233 0.447 0.0233
1708780850.3148 0.450 -0.046 0.0388 0.454 0.0388
1708780850.3223 0.456 -0.045 0.0481 0.460 0.0481
1708780850.3310 0.463 -0.045 0.0481 0.466 0.0481
1708780850.3392 0.470 -0.045 0.0512 0.473 0.0512
1708780850.3466 0.476 -0.044 0.0605 0.480 0.0605
1708780850.3538 0.483 -0.044 0.0761 0.486 0.0761
1708780850.3626 0.488 -0.043 0.0807 0.491 0.0807
1708780850.3701 0.494 -0.043 0.0792 0.497 0.0792
1708780850.3782 0.500 -0.042 0.0792 0.504 0.0792
1708780850.3868 0.507 -0.042 0.0900 0.511 0.0900
1708780850.3938 0.514 -0.041 0.0993 0.517 0.0993
1708780850.4021 0.520 -0.041 0.1009 0.523 0.1009
1708780850.4103 0.525 -0.040 0.1024 0.529 0.1024
1708780850.4180 0.532 -0.039 0.1056 0.535 0.1056
1708780850.4258 0.539 -0.039 0.1118 0.542 0.1118
1708780850.4343 0.545 -0.038 0.1180 0.548 0.1180
1708780850.4425 0.551 -0.037 0.1242 0.554 0.1242
1708780850.4503 0.557 -0.036 0.1273 0.561 0.1273
1708780850.4588 0.564 -0.035 0.1304 0.568 0.1304
1708780850.4660 0.570 -0.035 0.1319 0.574 0.1319
1708780850.4740 0.576 -0.034 0.1382 0.580 0.1382
1708780850.4824 0.582 -0.033 0.1428 0.586 0.1428
1708780850.4904 0.588 -0.032 0.1475 0.592 0.1475
1708780850.4985 0.595 -0.031 0.1490 0.599 0.1490
1708780850.5058 0.602 -0.030 0.1506 0.606 0.1506
1708780850.5140 0.607 -0.029 0.1552 0.611 0.1552
1708780850.5220 0.613 -0.028 0.1630 0.617 0.1630
1708780850.5302 0.620 -0.027 0.1707 0.624 0.1707
1708780850.5382 0.627 -0.026 0.1739 0.631 0.1739
1708780850.5459 0.633 -0.025 0.1739 0.637 0.1739
1708780850.5553 0.639 -0.024 0.1770 0.643 0.1770
1708780850.5629 0.644 -0.023 0.1863 0.649 0.1863
1708780850.5900 0.664 -0.019 0.1987 0.669 0.1987
1708780850.5945 0.671 -0.018 0.2033 0.676 0.2033
1708780850.6013 0.677 -0.016 0.2096 0.683 0.2096
1708780850.6106 0.681 -0.015 0.2173 0.687 0.2173
1708780850.6172 0.686 -0.014 0.2251 0.692 0.2251
1708780850.6250 0.692 -0.013 0.2297 0.698 0.2297
1708780850.6350 0.699 -0.011 0.2344 0.705 0.2344
1708780850.6412 0.705 -0.010 0.2406 0.711 0.2406
1708780850.6494 0.712 -0.008 0.2530 0.718 0.2530
1708780850.6579 0.717 -0.007 0.2623 0.724 0.2623
1708780850.6655 0.723 -0.005 0.2670 0.730 0.2670
1708780850.6732 0.729 -0.003 0.2716 0.736 0.2716
1708780850.6826 0.735 -0.002 0.2747 0.742 0.2747
1708780850.6896 0.740 -0.000 0.2825 0.748 0.2825
1708780850.6970 0.746 0.002 0.2918 0.754 0.2918
1708780850.7068 0.752 0.003 0.2934 0.760 0.2934
1708780850.7133 0.758 0.005 0.2949 0.766 0.2949
1708780850.7209 0.764 0.007 0.3011 0.773 0.3011
1708780850.7308 0.770 0.009 0.3105 0.779 0.3105
1708780850.7372 0.775 0.010 0.3198 0.784 0.3198
1708780850.7456 0.781 0.013 0.3260 0.791 0.3260
1708780850.7547 0.787 0.015 0.3260 0.797 0.3260
1708780850.7612 0.794 0.017 0.3275 0.804 0.3275
1708780850.7689 0.800 0.019 0.3337 0.810 0.3337
1708780850.7787 0.805 0.021 0.3399 0.815 0.3399
1708780850.7850 0.810 0.022 0.3415 0.821 0.3415
1708780850.7934 0.816 0.025 0.3430 0.827 0.3430
1708780850.8021 0.822 0.027 0.3446 0.834 0.3446
1708780850.8089 0.829 0.029 0.3508 0.841 0.3508
1708780850.8178 0.835 0.031 0.3524 0.847 0.3524
1708780850.8267 0.839 0.033 0.3524 0.852 0.3524
1708780850.8332 0.845 0.035 0.3524 0.859 0.3524
1708780850.8416 0.852 0.038 0.3570 0.865 0.3570
1708780850.8504 0.857 0.040 0.3601 0.871 0.3601
1708780850.8569 0.863 0.042 0.3601 0.877 0.3601
1708780850.8657 0.869 0.044 0.3570 0.884 0.3570
1708780850.8749 0.875 0.046 0.3524 0.890 0.3524
1708780850.8814 0.881 0.048 0.3508 0.896 0.3508
1708780850.8898 0.887 0.051 0.3462 0.903 0.3462
1708780850.8986 0.893 0.053 0.3462 0.909 0.3462
1708780850.9051 0.899 0.055 0.3430 0.915 0.3430
1708780850.9147 0.905 0.057 0.3399 0.922 0.3399
1708780850.9224 0.910 0.059 0.3353 0.928 0.3353
1708780850.9289 0.916 0.061 0.3291 0.934 0.3291
1708780850.9377 0.922 0.063 0.3244 0.941 0.3244
1708780850.9465 0.928 0.065 0.3198 0.946 0.3198
1708780850.9531 0.934 0.067 0.3105 0.953 0.3105
1708780850.9619 0.941 0.069 0.3011 0.960 0.3011
1708780850.9707 0.946 0.071 0.2965 0.965 0.2965
1708780850.9772 0.952 0.072 0.2903 0.971 0.2903
1708780850.9850 0.959 0.074 0.2810 0.979 0.2810
1708780850.9944 0.965 0.076 0.2701 0.985 0.2701
1708780851.0013 0.971 0.078 0.2608 0.991 0.2608
1708780851.0093 0.977 0.080 0.2546 0.998 0.2546
1708780851.0199 0.983 0.081 0.2468 1.004 0.2468
1708780851.0254 0.989 0.082 0.2375 1.010 0.2375
1708780851.0339 0.995 0.084 0.2220 1.016 0.2220
1708780851.0423 1.001 0.085 0.2127 1.022 0.2127
1708780851.0496 1.007 0.086 0.2049 1.028 0.2049
1708780851.0573 1.014 0.088 0.1956 1.035 0.1956
1708780851.0661 1.020 0.089 0.1816 1.041 0.1816
1708780851.0737 1.026 0.090 0.1645 1.047 0.1645
1708780851.0814 1.032 0.091 0.1521 1.054 0.1521
1708780851.0908 1.038 0.092 0.1459 1.060 0.1459
1708780851.0971 1.044 0.093 0.1335 1.066 0.1335
1708780851.1161 1.051 0.094 0.1195 1.073 0.1195
1708780851.1184 1.056 0.094 0.1102 1.078 0.1102
1708780851.1320 1.061 0.095 0.1024 1.083 0.1024
1708780851.1343 1.066 0.095 0.0900 1.088 0.0900
1708780851.1414 1.069 0.096 0.0730 1.091 0.0730
1708780851.1453 1.072 0.096 0.0528 1.094 0.0528
1708780851.1531 1.075 0.096 0.0373 1.097 0.0373
1708780851.1621 1.078 0.096 0.0419 1.100 0.0419
1708780851.1697 1.084 0.096 0.0466 1.106 0.0466
1708780851.1773 1.090 0.096 0.0373 1.112 0.0373
1708780851.1861 1.096 0.097 0.0217 1.118 0.0217
1708780851.1934 1.101 0.097 0.0109 1.123 0.0109
1708780851.2012 1.107 0.097 0.0047 1.129 0.0047
1708780851.2101 1.113 0.097 0.0000 1.135 -0.0000
1708780851.2178 1.118 0.097 -0.0078 1.140 -0.0078
1708780851.2250 1.124 0.097 -0.0171 1.146 -0.0171
1708780851.2342 1.131 0.097 -0.0233 1.153 -0.0233
1708780851.2414 1.136 0.096 -0.0310 1.158 -0.0310
1708780851.2493 1.142 0.096 -0.0404 1.164 -0.0404
1708780851.2582 1.149 0.096 -0.0481 1.171 -0.0481
1708780851.2658 1.155 0.096 -0.0543 1.177 -0.0543
1708780851.2746 1.162 0.095 -0.0636 1.184 -0.0636
1708780851.2823 1.167 0.095 -0.0730 1.189 -0.0730
1708780851.2895 1.174 0.094 -0.0807 1.196 -0.0807
1708780851.2973 1.180 0.094 -0.0869 1.203 -0.0869
1708780851.3061 1.186 0.093 -0.0900 1.209 -0.0900
1708780851.3137 1.192 0.093 -0.0978 1.214 -0.0978
1708780851.3213 1.199 0.092 -0.1056 1.221 -0.1056
1708780851.3302 1.206 0.091 -0.1102 1.228 -0.1102
1708780851.3378 1.212 0.091 -0.1149 1.234 -0.1149
1708780851.3453 1.218 0.090 -0.1195 1.240 -0.1195
1708780851.3545 1.224 0.089 -0.1257 1.246 -0.1257
1708780851.3610 1.230 0.088 -0.1288 1.253 -0.1288
1708780851.3691 1.237 0.087 -0.1335 1.259 -0.1335
1708780851.3780 1.243 0.087 -0.1366 1.265 -0.1366
1708780851.3856 1.249 0.086 -0.1382 1.271 -0.1382
1708780851.3930 1.255 0.085 -0.1413 1.278 -0.1413
1708780851.4029 1.261 0.084 -0.1459 1.284 -0.1459
1708780851.4096 1.267 0.083 -0.1459 1.290 -0.1459
1708780851.4174 1.273 0.082 -0.1459 1.296 -0.1459
1708780851.4264 1.280 0.081 -0.1459 1.302 -0.1459
1708780851.4330 1.285 0.080 -0.1444 1.308 -0.1444
1708780851.4414 1.292 0.080 -0.1444 1.315 -0.1444
1708780851.4503 1.298 0.079 -0.1444 1.321 -0.1444
1708780851.4577 1.304 0.078 -0.1413 1.328 -0.1413
1708780851.4655 1.311 0.077 -0.1382 1.334 -0.1382
1708780851.4744 1.317 0.076 -0.1366 1.341 -0.1366
1708780851.4809 1.323 0.075 -0.1319 1.346 -0.1319
1708780851.4894 1.329 0.074 -0.1257 1.352 -0.1257
1708780851.4982 1.335 0.074 -0.1195 1.358 -0.1195
1708780851.5056 1.341 0.073 -0.1133 1.365 -0.1133
1708780851.5134 1.349 0.072 -0.1102 1.372 -0.1102
1708780851.5222 1.355 0.071 -0.1040 1.378 -0.1040
1708780851.5298 1.360 0.071 -0.0962 1.384 -0.0962
1708780851.5376 1.367 0.070 -0.0869 1.390 -0.0869
1708780851.5469 1.373 0.070 -0.0792 1.397 -0.0792
1708780851.5534 1.379 0.069 -0.0730 1.403 -0.0730
1708780851.5611 1.386 0.069 -0.0652 1.409 -0.0652
1708780851.5700 1.392 0.068 -0.0528 1.415 -0.0528
1708780851.5769 1.398 0.068 -0.0404 1.421 -0.0404
1708780851.5858 1.405 0.068 -0.0279 1.428 -0.0279
1708780851.5940 1.411 0.068 -0.0217 1.435 -0.0217
1708780851.6015 1.418 0.068 -0.0124 1.441 -0.0124
1708780851.6093 1.424 0.068 0.0016 1.448 0.0016
1708780851.6180 1.430 0.068 0.0140 1.454 0.0140
1708780851.6256 1.436 0.068 0.0217 1.460 0.0217
1708780851.6342 1.443 0.068 0.0279 1.467 0.0279
1708780851.6430 1.450 0.068 0.0388 1.474 0.0388
1708780851.6495 1.456 0.069 0.0528 1.480 0.0528
1708780851.6574 1.463 0.069 0.0667 1.486 0.0667
1708780851.6664 1.468 0.069 0.0745 1.492 0.0745
1708780851.6730 1.475 0.070 0.0792 1.498 0.0792
1708780851.6813 1.481 0.070 0.0885 1.505 0.0885
1708780851.6908 1.487 0.071 0.1024 1.511 0.1024
1708780851.6972 1.493 0.072 0.1149 1.517 0.1149
1708780851.7058 1.500 0.072 0.1226 1.524 0.1226
1708780851.7153 1.506 0.073 0.1304 1.530 0.1304
1708780851.7215 1.513 0.074 0.1382 1.537 0.1382
1708780851.7295 1.519 0.075 0.1490 1.543 0.1490
1708780851.7411 1.525 0.076 0.1568 1.549 0.1568
1708780851.7453 1.531 0.077 0.1614 1.555 0.1614
1708780851.7536 1.537 0.078 0.1645 1.561 0.1645
1708780851.7629 1.541 0.078 0.1707 1.565 0.1707
1708780851.7697 1.546 0.079 0.1785 1.571 0.1785
1708780851.7771 1.554 0.081 0.1863 1.578 0.1863
1708780851.7876 1.560 0.082 0.1925 1.585 0.1925
1708780851.7933 1.566 0.083 0.2002 1.590 0.2002
1708780851.8018 1.571 0.084 0.2064 1.596 0.2064
1708780851.8100 1.576 0.085 0.2111 1.601 0.2111
1708780851.8175 1.582 0.087 0.2173 1.608 0.2173
1708780851.8257 1.589 0.088 0.2251 1.615 0.2251
1708780851.8346 1.595 0.090 0.2328 1.621 0.2328
1708780851.8418 1.601 0.091 0.2375 1.626 0.2375
1708780851.8495 1.607 0.092 0.2437 1.632 0.2437
1708780851.8583 1.613 0.094 0.2499 1.639 0.2499
1708780851.8657 1.619 0.096 0.2546 1.645 0.2546
1708780851.8734 1.626 0.097 0.2608 1.653 0.2608
1708780851.8823 1.632 0.099 0.2685 1.659 0.2685
1708780851.8895 1.637 0.100 0.2747 1.664 0.2747
1708780851.8972 1.643 0.102 0.2825 1.670 0.2825
1708780851.9069 1.650 0.104 0.2856 1.677 0.2856
1708780851.9134 1.656 0.106 0.2918 1.684 0.2918
1708780851.9211 1.663 0.108 0.2980 1.691 0.2980
1708780851.9309 1.668 0.110 0.3042 1.697 0.3042
1708780851.9375 1.674 0.111 0.3089 1.702 0.3089
1708780851.9450 1.680 0.114 0.3136 1.709 0.3136
1708780851.9547 1.686 0.115 0.3151 1.715 0.3151
1708780851.9612 1.692 0.117 0.3198 1.721 0.3198
1708780851.9689 1.698 0.119 0.3229 1.728 0.3229
1708780851.9787 1.704 0.121 0.3260 1.734 0.3260
1708780851.9856 1.709 0.123 0.3275 1.740 0.3275
1708780851.9938 1.716 0.125 0.3291 1.747 0.3291
1708780852.0027 1.722 0.128 0.3306 1.753 0.3306
1708780852.0092 1.728 0.130 0.3306 1.759 0.3306
1708780852.0171 1.734 0.132 0.3306 1.765 0.3306
1708780852.0260 1.739 0.133 0.3306 1.772 0.3306
1708780852.0336 1.745 0.135 0.3291 1.778 0.3291
1708780852.0409 1.752 0.138 0.3275 1.785 0.3275
1708780852.0508 1.758 0.140 0.3291 1.791 0.3291
1708780852.0573 1.764 0.142 0.3275 1.797 0.3275
1708780852.0650 1.770 0.144 0.3260 1.804 0.3260
1708780852.0739 1.776 0.146 0.3229 1.810 0.3229
1708780852.0816 1.781 0.148 0.3182 1.816 0.3182
1708780852.0890 1.787 0.150 0.3120 1.822 0.3120
1708780852.0989 1.794 0.152 0.3073 1.829 0.3073
1708780852.1054 1.799 0.153 0.3027 1.835 0.3027
1708780852.1134 1.805 0.155 0.2980 1.841 0.2980
1708780852.1223 1.811 0.157 0.2918 1.847 0.2918
1708780852.1290 1.817 0.159 0.2856 1.853 0.2856
1708780852.1376 1.823 0.160 0.2763 1.859 0.2763
1708780852.1465 1.829 0.162 0.2701 1.865 0.2701
1708780852.1548 1.835 0.164 0.2639 1.872 0.2639
1708780852.1617 1.842 0.166 0.2577 1.879 0.2577
1708780852.1708 1.848 0.167 0.2530 1.885 0.2530
1708780852.1773 1.853 0.169 0.2453 1.891 0.2453
1708780852.1856 1.859 0.170 0.2344 1.897 0.2344
1708780852.1945 1.866 0.172 0.2235 1.903 0.2235
1708780852.2011 1.872 0.173 0.2158 1.910 0.2158
1708780852.2091 1.879 0.174 0.2096 1.917 0.2096
1708780852.2184 1.884 0.176 0.2018 1.923 0.2018
1708780852.2251 1.890 0.177 0.1894 1.929 0.1894
1708780852.2336 1.897 0.178 0.1801 1.935 0.1801
1708780852.2441 1.904 0.179 0.1739 1.942 0.1739
1708780852.2497 1.910 0.180 0.1645 1.948 0.1645
1708780852.2578 1.916 0.181 0.1521 1.955 0.1521
1708780852.2669 1.921 0.182 0.1444 1.960 0.1444
1708780852.2736 1.927 0.183 0.1397 1.966 0.1397
1708780852.2811 1.935 0.184 0.1335 1.974 0.1335
1708780852.2903 1.941 0.185 0.1211 1.980 0.1211
1708780852.2970 1.946 0.185 0.1102 1.985 0.1102
1708780852.3051 1.952 0.186 0.0993 1.991 0.0993
1708780852.3143 1.958 0.187 0.0916 1.997 0.0916
1708780852.3209 1.965 0.187 0.0854 2.004 0.0854
1708780852.3290 1.971 0.188 0.0761 2.010 0.0761
1708780852.3384 1.977 0.188 0.0683 2.016 0.0683
1708780852.3449 1.983 0.188 0.0605 2.022 0.0605
1708780852.3546 1.990 0.189 0.0512 2.029 0.0512
1708780852.3623 1.996 0.189 0.0435 2.035 0.0435
1708780852.3689 2.003 0.189 0.0388 2.042 0.0388
1708780852.3775 2.009 0.190 0.0310 2.048 0.0310
1708780852.3873 2.014 0.190 0.0248 2.053 0.0248
1708780852.3936 2.021 0.190 0.0202 2.060 0.0202
1708780852.4014 2.028 0.190 0.0109 2.067 0.0109
1708780852.4104 2.034 0.190 0.0047 2.073 0.0047
1708780852.4169 2.039 0.190 0.0016 2.079 0.0016
1708780852.4249 2.046 0.190 -0.0047 2.085 -0.0047
1708780852.4345 2.052 0.190 -0.0093 2.091 -0.0093
1708780852.4418 2.058 0.190 -0.0155 2.097 -0.0155
1708780852.4490 2.065 0.190 -0.0233 2.105 -0.0233
1708780852.4589 2.072 0.190 -0.0295 2.111 -0.0295
1708780852.4655 2.077 0.190 -0.0310 2.116 -0.0310
1708780852.4735 2.083 0.189 -0.0326 2.122 -0.0326
1708780852.4824 2.090 0.189 -0.0357 2.129 -0.0357
1708780852.4894 2.097 0.189 -0.0388 2.136 -0.0388
1708780852.4973 2.103 0.189 -0.0404 2.142 -0.0404
1708780852.5065 2.109 0.188 -0.0419 2.148 -0.0419
1708780852.5131 2.115 0.188 -0.0404 2.154 -0.0404
1708780852.5209 2.121 0.188 -0.0435 2.161 -0.0435
1708780852.5302 2.127 0.188 -0.0435 2.166 -0.0435
1708780852.5379 2.133 0.187 -0.0419 2.172 -0.0419
1708780852.5450 2.140 0.187 -0.0435 2.179 -0.0435
1708780852.5542 2.146 0.187 -0.0466 2.185 -0.0466
1708780852.5610 2.152 0.186 -0.0450 2.191 -0.0450
1708780852.5690 2.158 0.186 -0.0419 2.197 -0.0419
1708780852.5786 2.165 0.186 -0.0341 2.204 -0.0341
1708780852.5853 2.172 0.186 -0.0326 2.211 -0.0326
1708780852.5931 2.178 0.186 -0.0326 2.218 -0.0326
1708780852.6023 2.184 0.185 -0.0279 2.223 -0.0279
1708780852.6089 2.189 0.185 -0.0202 2.228 -0.0202
1708780852.6170 2.196 0.185 -0.0124 2.235 -0.0124
1708780852.6272 2.202 0.185 -0.0093 2.242 -0.0093
1708780852.6333 2.209 0.185 -0.0047 2.248 -0.0047
1708780852.6410 2.215 0.185 0.0031 2.255 0.0031
1708780852.6502 2.221 0.185 0.0093 2.260 0.0093
1708780852.6583 2.227 0.185 0.0171 2.266 0.0171
1708780852.6654 2.234 0.185 0.0217 2.273 0.0217
1708780852.6744 2.241 0.185 0.0248 2.280 0.0248
1708780852.6809 2.247 0.186 0.0341 2.286 0.0341
1708780852.6896 2.253 0.186 0.0435 2.292 0.0435
1708780852.6987 2.259 0.186 0.0497 2.298 0.0497
1708780852.7049 2.265 0.186 0.0559 2.305 0.0559
1708780852.7148 2.272 0.187 0.0636 2.312 0.0636
1708780852.7229 2.278 0.187 0.0714 2.317 0.0714
1708780852.7297 2.283 0.188 0.0792 2.323 0.0792
1708780852.7370 2.290 0.188 0.0900 2.329 0.0900
1708780852.7467 2.296 0.189 0.0993 2.336 0.0993
1708780852.7533 2.302 0.189 0.1087 2.342 0.1087
1708780852.7612 2.309 0.190 0.1164 2.348 0.1164
1708780852.7701 2.315 0.191 0.1257 2.354 0.1257
1708780852.7777 2.321 0.192 0.1350 2.360 0.1350
1708780852.7854 2.327 0.193 0.1413 2.367 0.1413
1708780852.7950 2.334 0.194 0.1490 2.373 0.1490
1708780852.8018 2.340 0.194 0.1614 2.379 0.1614
1708780852.8094 2.346 0.196 0.1739 2.386 0.1739
1708780852.8183 2.352 0.197 0.1816 2.392 0.1816
1708780852.8249 2.358 0.198 0.1894 2.398 0.1894
1708780852.8339 2.364 0.199 0.1987 2.405 0.1987
1708780852.8430 2.371 0.200 0.2096 2.411 0.2096
1708780852.8494 2.377 0.202 0.2189 2.418 0.2189
1708780852.8574 2.384 0.203 0.2282 2.425 0.2282
1708780852.8664 2.390 0.205 0.2359 2.431 0.2359
1708780852.8729 2.395 0.206 0.2453 2.436 0.2453
1708780852.8820 2.401 0.208 0.2530 2.443 0.2530
1708780852.8905 2.408 0.209 0.2592 2.449 0.2592
1708780852.8970 2.415 0.211 0.2639 2.456 0.2639
1708780852.9049 2.421 0.213 0.2747 2.463 0.2747
1708780852.9150 2.426 0.214 0.2856 2.468 0.2856
1708780852.9218 2.431 0.216 0.2903 2.473 0.2903
1708780852.9297 2.438 0.218 0.2918 2.480 0.2918
