% Pose without folding and reset (log_20240224_141416.307/log_pose_abs.txt)
% 1 	Time (sec)
% 2,3 	Position x,y (m)
% 4 	heading (rad)
% 5 	Driven distance (m) - signed
% 6 	Turned angle (rad) - signed
1708780456.6775 0.000 0.000 0.0000 0.000 0.0000
1708780456.6853 0.000 0.000 0.0000 0.000 0.0000
1708780456.6953 0.003 0.000 0.0000 0.003 0.0000
1708780456.7026 0.005 0.000 0.0000 0.005 0.0000
1708780456.7127 0.005 0.000 0.0031 0.005 0.0031
1708780456.7212 0.005 -0.000 -0.0000 0.005 -0.0000
1708780456.7305 0.003 -0.000 -0.0000 0.003 -0.0000
1708780456.7362 0.003 -0.000 -0.0000 0.003 -0.0000
1708780456.7416 0.003 -0.000 -0.0000 0.003 -0.0000
1708780456.7482 0.006 -0.000 -0.0000 0.006 -0.0000
1708780456.7559 0.012 -0.000 -0.0031 0.012 -0.0031
1708780456.7650 0.018 -0.000 -0.0000 0.018 -0.0000
1708780456.7729 0.023 -0.000 0.0016 0.023 0.0016
1708780456.7805 0.028 -0.000 0.0016 0.028 0.0016
1708780456.7881 0.034 -0.000 -0.0031 0.034 -0.0031
1708780456.7963 0.039 -0.000 -0.0016 0.039 -0.0016
1708780456.8040 0.045 -0.000 0.0016 0.045 0.0016
1708780456.8128 0.051 -0.000 0.0031 0.051 0.0031
1708780456.8208 0.057 -0.000 -0.0000 0.057 -0.0000
1708780456.8285 0.063 -0.000 -0.0000 0.063 -0.0000
1708780456.8362 0.069 0.000 0.0031 0.069 0.0031
1708780456.8441 0.075 0.000 0.0047 0.075 0.0047
1708780456.8519 0.080 0.000 0.0031 0.080 0.0031
1708780456.8608 0.087 0.000 0.0016 0.087 0.0016
1708780456.8689 0.093 0.000 0.0016 0.093 0.0016
1708780456.8880 0.100 0.000 0.0016 0.100 0.0016
1708780456.8897 0.107 0.000 0.0031 0.107 0.0031
1708780456.9017 0.113 0.000 0.0031 0.113 0.0031
1708780456.9051 0.117 0.000 0.0047 0.117 0.0047
1708780456.9088 0.119 0.000 0.0078 0.119 0.0078
1708780456.9169 0.121 0.000 0.0078 0.121 0.0078
1708780456.9240 0.125 0.000 0.0062 0.125 0.0062
1708780456.9325 0.130 0.000 0.0016 0.130 0.0016
1708780456.9409 0.137 0.000 -0.0031 0.137 -0.0031
1708780456.9481 0.143 0.000 0.0000 0.143 0.0000
1708780456.9566 0.148 0.000 0.0016 0.148 0.0016
1708780456.9649 0.153 0.000 0.0016 0.153 0.0016
1708780456.9720 0.159 0.000 -0.0016 0.159 -0.0016
1708780456.9804 0.165 0.000 -0.0047 0.165 -0.0047
1708780456.9882 0.170 0.000 -0.0031 0.170 -0.0031
1708780456.9960 0.176 0.000 -0.0031 0.176 -0.0031
1708780457.0049 0.182 0.000 -0.0047 0.182 -0.0047
1708780457.0121 0.189 0.000 -0.0031 0.189 -0.0031
1708780457.0201 0.195 0.000 -0.0031 0.195 -0.0031
1708780457.0283 0.201 0.000 -0.0016 0.201 -0.0016
1708780457.0366 0.207 0.000 -0.0031 0.207 -0.0031
1708780457.0448 0.213 0.000 -0.0047 0.213 -0.0047
1708780457.0521 0.220 -0.000 -0.0047 0.220 -0.0047
1708780457.0607 0.226 -0.000 -0.0031 0.226 -0.0031
1708780457.0688 0.232 -0.000 -0.0031 0.232 -0.0031
1708780457.0760 0.239 -0.000 -0.0016 0.239 -0.0016
1708780457.0840 0.245 -0.000 -0.0031 0.245 -0.0031
1708780457.0923 0.251 -0.000 -0.0016 0.251 -0.0016
1708780457.1006 0.257 -0.000 -0.0016 0.257 -0.0016
1708780457.1088 0.263 -0.000 -0.0031 0.263 -0.0031
1708780457.1164 0.270 -0.000 -0.0031 0.270 -0.0031
1708780457.1247 0.276 -0.000 -0.0047 0.276 -0.0047
1708780457.1327 0.282 -0.000 -0.0031 0.282 -0.0031
1708780457.1400 0.288 -0.000 -0.0031 0.288 -0.0031
1708780457.1482 0.295 -0.000 -0.0031 0.295 -0.0031
1708780457.1564 0.300 -0.000 -0.0016 0.300 -0.0016
1708780457.1659 0.307 -0.000 -0.0031 0.307 -0.0031
1708780457.1724 0.314 -0.000 -0.0047 0.314 -0.0047
1708780457.1806 0.321 -0.000 -0.0031 0.321 -0.0031
1708780457.1888 0.327 -0.000 -0.0016 0.327 -0.0016
1708780457.1960 0.332 -0.000 0.0000 0.332 0.0000
1708780457.2041 0.338 -0.000 0.0000 0.338 0.0000
1708780457.2128 0.345 -0.000 -0.0016 0.345 -0.0016
1708780457.2208 0.352 -0.000 0.0000 0.352 0.0000
1708780457.2281 0.358 -0.000 0.0000 0.358 0.0000
1708780457.2366 0.364 -0.000 0.0000 0.364 0.0000
1708780457.2446 0.370 -0.000 0.0000 0.370 0.0000
1708780457.2527 0.376 -0.000 0.0000 0.376 0.0000
1708780457.2611 0.383 -0.000 -0.0016 0.383 -0.0016
1708780457.2681 0.389 -0.000 -0.0016 0.389 -0.0016
1708780457.2765 0.396 -0.000 0.0016 0.396 0.0016
1708780457.2842 0.402 -0.000 0.0031 0.402 0.0031
1708780457.2929 0.408 -0.000 0.0016 0.408 0.0016
1708780457.3003 0.414 -0.000 -0.0016 0.414 -0.0016
1708780457.3081 0.421 -0.000 -0.0031 0.421 -0.0031
1708780457.3161 0.427 -0.000 -0.0016 0.427 -0.0016
1708780457.3245 0.433 -0.000 -0.0016 0.433 -0.0016
1708780457.3322 0.440 -0.000 -0.0031 0.440 -0.0031
1708780457.3409 0.446 -0.000 -0.0016 0.446 -0.0016
1708780457.3482 0.453 -0.000 0.0000 0.453 0.0000
1708780457.3561 0.459 -0.000 -0.0016 0.459 -0.0016
1708780457.3642 0.465 -0.000 -0.0031 0.465 -0.0031
1708780457.3723 0.471 -0.000 -0.0031 0.471 -0.0031
1708780457.3800 0.478 -0.000 -0.0016 0.478 -0.0016
1708780457.3888 0.485 -0.000 -0.0016 0.485 -0.0016
1708780457.3970 0.491 -0.000 -0.0031 0.491 -0.0031
1708780457.4048 0.498 -0.000 -0.0031 0.498 -0.0031
1708780457.4129 0.505 -0.001 -0.0016 0.505 -0.0016
1708780457.4201 0.510 -0.001 0.0000 0.510 0.0000
1708780457.4282 0.516 -0.001 -0.0031 0.516 -0.0031
