% Pose without folding and reset (log_20240224_144441.465/log_pose_abs.txt)
% 1 	Time (sec)
% 2,3 	Position x,y (m)
% 4 	heading (rad)
% 5 	Driven distance (m) - signed
% 6 	Turned angle (rad) - signed
1708782282.5266 0.000 0.000 0.0000 0.000 0.0000
1708782282.5343 0.000 0.000 0.0000 0.000 0.0000
1708782282.5415 -0.000 -0.000 0.0016 -0.000 0.0016
1708782282.5501 -0.000 -0.000 0.0016 -0.000 0.0016
1708782282.5581 0.000 0.000 0.0000 0.000 0.0000
1708782282.5661 0.002 0.000 0.0124 0.002 0.0124
1708782282.5737 0.005 0.000 0.0124 0.005 0.0124
1708782282.5825 0.008 0.000 0.0124 0.008 0.0124
1708782282.5894 0.010 0.000 0.0124 0.010 0.0124
1708782282.5981 0.013 0.000 0.0155 0.013 0.0155
1708782282.6062 0.017 0.000 0.0155 0.017 0.0155
1708782282.6186 0.022 0.000 0.0140 0.022 0.0140
1708782282.6214 0.027 0.000 0.0109 0.027 0.0109
1708782282.6294 0.031 0.000 0.0109 0.031 0.0109
1708782282.6384 0.033 0.000 0.0140 0.033 0.0140
1708782282.6459 0.037 0.000 0.0186 0.037 0.0186
1708782282.6535 0.044 0.001 0.0186 0.044 0.0186
1708782282.6614 0.052 0.001 0.0140 0.052 0.0140
1708782282.6700 0.057 0.001 0.0047 0.057 0.0047
1708782282.6776 0.061 0.001 0.0062 0.061 0.0062
1708782282.6859 0.067 0.001 0.0062 0.067 0.0062
1708782282.6933 0.074 0.001 0.0062 0.074 0.0062
1708782282.7022 0.082 0.001 0.0000 0.082 0.0000
1708782282.7100 0.089 0.001 -0.0062 0.089 -0.0062
1708782282.7175 0.094 0.001 -0.0078 0.094 -0.0078
1708782282.7268 0.100 0.001 -0.0078 0.100 -0.0078
1708782282.7334 0.105 0.001 -0.0109 0.105 -0.0109
1708782282.7417 0.112 0.001 -0.0109 0.112 -0.0109
1708782282.7499 0.118 0.001 -0.0109 0.118 -0.0109
1708782282.7584 0.125 0.001 -0.0140 0.125 -0.0140
1708782282.7663 0.131 0.000 -0.0155 0.131 -0.0155
1708782282.7733 0.137 0.000 -0.0155 0.137 -0.0155
1708782282.7826 0.145 0.000 -0.0093 0.145 -0.0093
1708782282.7898 0.152 0.000 -0.0078 0.152 -0.0078
1708782282.7976 0.159 0.000 -0.0093 0.159 -0.0093
1708782282.8054 0.166 0.000 -0.0093 0.166 -0.0093
1708782282.8135 0.173 0.000 -0.0062 0.173 -0.0062
1708782282.8215 0.180 -0.000 -0.0031 0.180 -0.0031
1708782282.8300 0.187 -0.000 0.0016 0.187 0.0016
1708782282.8375 0.195 0.000 0.0031 0.195 0.0031
1708782282.8458 0.202 0.000 0.0016 0.202 0.0016
1708782282.8541 0.208 0.000 0.0016 0.208 0.0016
1708782282.8660 0.214 0.000 0.0016 0.214 0.0016
1708782282.8699 0.222 0.000 0.0016 0.222 0.0016
1708782282.8785 0.230 0.000 0.0016 0.230 0.0016
1708782282.8860 0.236 0.000 0.0016 0.236 0.0016
1708782282.8933 0.242 0.000 0.0047 0.242 0.0047
1708782282.9016 0.248 0.000 0.0078 0.248 0.0078
1708782282.9095 0.255 0.000 0.0093 0.255 0.0093
1708782282.9178 0.261 0.000 0.0109 0.261 0.0109
1708782282.9262 0.266 0.000 0.0124 0.266 0.0124
1708782282.9336 0.272 0.000 0.0155 0.272 0.0155
1708782282.9420 0.279 0.001 0.0186 0.279 0.0186
1708782282.9502 0.285 0.001 0.0202 0.285 0.0202
1708782282.9580 0.291 0.001 0.0217 0.291 0.0217
1708782282.9663 0.297 0.001 0.0264 0.297 0.0264
1708782282.9736 0.303 0.001 0.0295 0.303 0.0295
1708782282.9822 0.309 0.001 0.0310 0.309 0.0310
1708782282.9893 0.315 0.001 0.0326 0.315 0.0326
1708782282.9976 0.321 0.002 0.0341 0.321 0.0341
1708782283.0055 0.327 0.002 0.0388 0.327 0.0388
1708782283.0137 0.333 0.002 0.0419 0.333 0.0419
1708782283.0217 0.340 0.002 0.0435 0.340 0.0435
1708782283.0295 0.346 0.003 0.0435 0.346 0.0435
1708782283.0373 0.352 0.003 0.0497 0.352 0.0497
1708782283.0456 0.358 0.003 0.0574 0.358 0.0574
1708782283.0535 0.364 0.004 0.0590 0.364 0.0590
1708782283.0618 0.370 0.004 0.0590 0.370 0.0590
1708782283.0717 0.376 0.004 0.0652 0.376 0.0652
1708782283.0774 0.383 0.005 0.0699 0.383 0.0699
1708782283.0862 0.389 0.005 0.0730 0.389 0.0730
1708782283.0935 0.394 0.006 0.0745 0.395 0.0745
1708782283.1015 0.401 0.006 0.0792 0.401 0.0792
1708782283.1098 0.408 0.007 0.0838 0.408 0.0838
1708782283.1181 0.414 0.007 0.0885 0.414 0.0885
1708782283.1262 0.420 0.008 0.0931 0.421 0.0931
1708782283.1341 0.427 0.008 0.0993 0.427 0.0993
1708782283.1415 0.434 0.009 0.1009 0.434 0.1009
1708782283.1494 0.440 0.010 0.1040 0.440 0.1040
1708782283.1581 0.445 0.010 0.1087 0.446 0.1087
1708782283.1654 0.452 0.011 0.1149 0.453 0.1149
1708782283.1743 0.459 0.012 0.1180 0.459 0.1180
1708782283.1822 0.465 0.013 0.1211 0.465 0.1211
1708782283.1896 0.471 0.013 0.1226 0.472 0.1226
1708782283.1975 0.478 0.014 0.1257 0.478 0.1257
1708782283.2060 0.484 0.015 0.1304 0.484 0.1304
1708782283.2133 0.490 0.016 0.1335 0.491 0.1335
1708782283.2214 0.497 0.017 0.1382 0.497 0.1382
1708782283.2296 0.503 0.018 0.1413 0.503 0.1413
1708782283.2375 0.509 0.018 0.1428 0.510 0.1428
1708782283.2459 0.515 0.019 0.1413 0.516 0.1413
1708782283.2543 0.522 0.020 0.1459 0.523 0.1459
1708782283.2614 0.528 0.021 0.1537 0.529 0.1537
1708782283.2693 0.535 0.022 0.1568 0.536 0.1568
1708782283.2776 0.540 0.023 0.1552 0.542 0.1552
1708782283.2855 0.547 0.024 0.1537 0.548 0.1537
1708782283.2936 0.553 0.025 0.1568 0.555 0.1568
1708782283.3021 0.560 0.026 0.1630 0.561 0.1630
1708782283.3093 0.566 0.027 0.1645 0.567 0.1645
1708782283.3173 0.572 0.028 0.1645 0.573 0.1645
1708782283.3256 0.578 0.029 0.1645 0.579 0.1645
1708782283.3337 0.584 0.030 0.1661 0.586 0.1661
1708782283.3416 0.591 0.031 0.1692 0.593 0.1692
1708782283.3501 0.597 0.033 0.1692 0.599 0.1692
1708782283.3583 0.604 0.034 0.1692 0.606 0.1692
1708782283.3662 0.610 0.035 0.1739 0.612 0.1739
1708782283.3734 0.616 0.036 0.1754 0.618 0.1754
1708782283.3822 0.622 0.037 0.1754 0.624 0.1754
1708782283.3900 0.628 0.038 0.1739 0.630 0.1739
1708782283.3981 0.634 0.039 0.1739 0.637 0.1739
1708782283.4054 0.641 0.040 0.1770 0.643 0.1770
1708782283.4133 0.647 0.041 0.1785 0.650 0.1785
1708782283.4216 0.653 0.042 0.1785 0.656 0.1785
1708782283.4302 0.659 0.043 0.1754 0.662 0.1754
1708782283.4378 0.666 0.045 0.1739 0.669 0.1739
1708782283.4459 0.673 0.046 0.1739 0.676 0.1739
1708782283.4543 0.679 0.047 0.1770 0.683 0.1770
1708782283.4622 0.685 0.048 0.1770 0.688 0.1770
1708782283.4695 0.691 0.049 0.1723 0.695 0.1723
1708782283.4778 0.698 0.050 0.1723 0.701 0.1723
1708782283.4863 0.704 0.051 0.1739 0.708 0.1739
1708782283.4938 0.710 0.052 0.1723 0.714 0.1723
1708782283.5022 0.717 0.054 0.1707 0.720 0.1707
1708782283.5100 0.723 0.055 0.1707 0.727 0.1707
1708782283.5173 0.729 0.056 0.1692 0.733 0.1692
1708782283.5257 0.736 0.057 0.1692 0.740 0.1692
1708782283.5341 0.742 0.058 0.1723 0.746 0.1723
1708782283.5413 0.748 0.059 0.1707 0.753 0.1707
1708782283.5503 0.754 0.060 0.1661 0.759 0.1661
1708782283.5582 0.760 0.061 0.1630 0.765 0.1630
1708782283.5654 0.767 0.062 0.1630 0.772 0.1630
1708782283.5738 0.774 0.063 0.1630 0.778 0.1630
1708782283.5827 0.779 0.064 0.1614 0.784 0.1614
1708782283.5900 0.785 0.065 0.1583 0.790 0.1583
1708782283.5973 0.792 0.066 0.1552 0.797 0.1552
1708782283.6055 0.798 0.067 0.1537 0.803 0.1537
1708782283.6138 0.804 0.068 0.1537 0.809 0.1537
1708782283.6221 0.810 0.069 0.1506 0.815 0.1506
1708782283.6299 0.817 0.070 0.1475 0.822 0.1475
1708782283.6380 0.824 0.071 0.1459 0.829 0.1459
1708782283.6453 0.830 0.072 0.1428 0.835 0.1428
1708782283.6533 0.836 0.073 0.1428 0.841 0.1428
1708782283.6617 0.842 0.074 0.1413 0.847 0.1413
1708782283.6699 0.848 0.075 0.1350 0.854 0.1350
1708782283.6778 0.855 0.075 0.1335 0.860 0.1335
1708782283.6860 0.861 0.076 0.1319 0.867 0.1319
1708782283.6935 0.867 0.077 0.1288 0.873 0.1288
1708782283.7015 0.874 0.078 0.1242 0.879 0.1242
1708782283.7099 0.880 0.079 0.1195 0.886 0.1195
1708782283.7174 0.886 0.079 0.1180 0.892 0.1180
1708782283.7254 0.893 0.080 0.1164 0.899 0.1164
1708782283.7335 0.899 0.081 0.1118 0.905 0.1118
1708782283.7418 0.905 0.082 0.1056 0.911 0.1056
1708782283.7498 0.911 0.082 0.1056 0.917 0.1056
1708782283.7580 0.918 0.083 0.1071 0.924 0.1071
1708782283.7653 0.925 0.084 0.1024 0.931 0.1024
1708782283.7737 0.931 0.084 0.0978 0.938 0.0978
1708782283.7818 0.937 0.085 0.0947 0.943 0.0947
1708782283.7893 0.943 0.085 0.0916 0.949 0.0916
1708782283.7982 0.950 0.086 0.0900 0.956 0.0900
1708782283.8056 0.957 0.087 0.0885 0.963 0.0885
1708782283.8139 0.963 0.087 0.0854 0.969 0.0854
1708782283.8219 0.969 0.088 0.0823 0.975 0.0823
1708782283.8303 0.975 0.088 0.0807 0.981 0.0807
1708782283.8382 0.982 0.089 0.0807 0.988 0.0807
1708782283.8460 0.989 0.089 0.0761 0.995 0.0761
1708782283.8544 0.994 0.090 0.0745 1.001 0.0745
1708782283.8616 1.000 0.090 0.0761 1.007 0.0761
1708782283.8696 1.007 0.091 0.0761 1.013 0.0761
1708782283.8780 1.013 0.091 0.0730 1.020 0.0730
1708782283.8859 1.020 0.092 0.0714 1.026 0.0714
1708782283.8936 1.026 0.092 0.0699 1.033 0.0699
1708782283.9022 1.033 0.092 0.0714 1.039 0.0714
1708782283.9099 1.040 0.093 0.0761 1.046 0.0761
1708782283.9177 1.046 0.093 0.0761 1.053 0.0761
1708782283.9256 1.052 0.094 0.0714 1.058 0.0714
1708782283.9344 1.058 0.094 0.0714 1.064 0.0714
1708782283.9416 1.064 0.095 0.0745 1.071 0.0745
1708782283.9495 1.071 0.095 0.0745 1.078 0.0745
1708782283.9575 1.078 0.096 0.0745 1.084 0.0745
1708782283.9654 1.084 0.096 0.0745 1.090 0.0745
1708782283.9744 1.090 0.097 0.0761 1.096 0.0761
1708782283.9997 1.111 0.098 0.0823 1.117 0.0823
1708782284.0064 1.117 0.099 0.0823 1.124 0.0823
1708782284.0143 1.124 0.099 0.0869 1.130 0.0869
1708782284.0233 1.129 0.100 0.0900 1.136 0.0900
1708782284.0309 1.135 0.100 0.0900 1.142 0.0900
1708782284.0388 1.142 0.101 0.0900 1.149 0.0900
1708782284.0468 1.149 0.102 0.0916 1.156 0.0916
1708782284.0552 1.155 0.102 0.0978 1.162 0.0978
1708782284.0631 1.161 0.103 0.1009 1.168 0.1009
1708782284.0721 1.168 0.104 0.1024 1.175 0.1024
1708782284.0788 1.175 0.104 0.1009 1.182 0.1009
1708782284.0871 1.181 0.105 0.1040 1.188 0.1040
1708782284.0950 1.187 0.106 0.1102 1.194 0.1102
1708782284.1023 1.192 0.106 0.1149 1.199 0.1149
1708782284.1112 1.199 0.107 0.1195 1.206 0.1195
1708782284.1187 1.206 0.108 0.1211 1.213 0.1211
1708782284.1263 1.212 0.109 0.1242 1.219 0.1242
1708782284.1352 1.218 0.109 0.1273 1.225 0.1273
1708782284.1430 1.224 0.110 0.1319 1.231 0.1319
1708782284.1502 1.231 0.111 0.1366 1.238 0.1366
1708782284.1592 1.238 0.112 0.1413 1.245 0.1413
1708782284.1667 1.244 0.113 0.1459 1.251 0.1459
1708782284.1743 1.250 0.114 0.1490 1.257 0.1490
1708782284.1832 1.256 0.115 0.1537 1.263 0.1537
1708782284.1909 1.262 0.116 0.1599 1.270 0.1599
1708782284.1992 1.269 0.117 0.1630 1.277 0.1630
1708782284.2068 1.275 0.118 0.1630 1.283 0.1630
1708782284.2146 1.281 0.119 0.1692 1.289 0.1692
1708782284.2233 1.287 0.120 0.1785 1.295 0.1785
1708782284.2313 1.294 0.121 0.1801 1.302 0.1801
1708782284.2392 1.300 0.122 0.1816 1.309 0.1816
1708782284.2468 1.307 0.124 0.1863 1.315 0.1863
1708782284.2551 1.313 0.125 0.1925 1.321 0.1925
1708782284.2628 1.318 0.126 0.1987 1.327 0.1987
1708782284.2705 1.325 0.127 0.2033 1.334 0.2033
1708782284.2783 1.332 0.128 0.2033 1.340 0.2033
1708782284.2871 1.337 0.130 0.2064 1.346 0.2064
1708782284.2947 1.343 0.131 0.2111 1.352 0.2111
1708782284.3029 1.349 0.132 0.2111 1.358 0.2111
1708782284.3107 1.356 0.134 0.2142 1.365 0.2142
1708782284.3183 1.362 0.135 0.2158 1.372 0.2158
1708782284.3272 1.368 0.136 0.2189 1.378 0.2189
1708782284.3350 1.374 0.138 0.2251 1.384 0.2251
1708782284.3424 1.381 0.139 0.2282 1.391 0.2282
1708782284.3508 1.387 0.141 0.2297 1.397 0.2297
1708782284.3586 1.392 0.142 0.2344 1.402 0.2344
1708782284.3663 1.398 0.143 0.2359 1.409 0.2359
1708782284.3752 1.405 0.145 0.2359 1.416 0.2359
1708782284.3830 1.411 0.146 0.2375 1.422 0.2375
1708782284.3904 1.418 0.148 0.2390 1.429 0.2390
1708782284.3989 1.424 0.150 0.2406 1.435 0.2406
1708782284.4070 1.430 0.151 0.2453 1.441 0.2453
1708782284.4146 1.436 0.153 0.2453 1.448 0.2453
1708782284.4225 1.443 0.154 0.2468 1.454 0.2468
1708782284.4323 1.448 0.156 0.2468 1.460 0.2468
1708782284.4388 1.453 0.157 0.2437 1.466 0.2437
1708782284.4604 1.472 0.162 0.2390 1.485 0.2390
1708782284.4670 1.479 0.163 0.2390 1.492 0.2390
1708782284.4749 1.484 0.165 0.2422 1.497 0.2422
1708782284.4847 1.489 0.166 0.2406 1.503 0.2406
1708782284.4913 1.495 0.167 0.2375 1.509 0.2375
1708782284.4993 1.503 0.169 0.2359 1.516 0.2359
1708782284.5083 1.509 0.171 0.2328 1.523 0.2328
1708782284.5145 1.515 0.172 0.2328 1.529 0.2328
1708782284.5228 1.521 0.173 0.2328 1.535 0.2328
1708782284.5317 1.527 0.175 0.2282 1.541 0.2282
1708782284.5394 1.533 0.176 0.2220 1.547 0.2220
1708782284.5473 1.540 0.178 0.2189 1.555 0.2189
1708782284.5562 1.546 0.179 0.2173 1.561 0.2173
1708782284.5634 1.552 0.180 0.2111 1.567 0.2111
1708782284.5710 1.558 0.182 0.2033 1.573 0.2033
1708782284.5799 1.564 0.183 0.1925 1.579 0.1925
1708782284.5864 1.570 0.184 0.1801 1.585 0.1801
1708782284.5953 1.577 0.185 0.1707 1.592 0.1707
1708782284.6042 1.583 0.186 0.1599 1.598 0.1599
1708782284.6122 1.589 0.187 0.1475 1.604 0.1475
1708782284.6189 1.596 0.188 0.1397 1.612 0.1397
1708782284.6279 1.602 0.189 0.1319 1.618 0.1319
1708782284.6345 1.607 0.190 0.1211 1.623 0.1211
1708782284.6433 1.613 0.190 0.1056 1.628 0.1056
1708782284.6522 1.619 0.191 0.0885 1.635 0.0885
1708782284.6592 1.626 0.191 0.0761 1.642 0.0761
1708782284.6669 1.633 0.192 0.0605 1.649 0.0605
1708782284.6757 1.638 0.192 0.0419 1.654 0.0419
1708782284.6834 1.644 0.192 0.0171 1.660 0.0171
1708782284.6912 1.651 0.192 -0.0062 1.666 -0.0062
1708782284.7001 1.657 0.192 -0.0233 1.673 -0.0233
1708782284.7065 1.663 0.192 -0.0404 1.679 -0.0404
1708782284.7150 1.669 0.192 -0.0605 1.685 -0.0605
1708782284.7248 1.675 0.191 -0.0807 1.691 -0.0807
1708782284.7314 1.682 0.191 -0.1056 1.698 -0.1056
1708782284.7391 1.689 0.190 -0.1288 1.705 -0.1288
1708782284.7488 1.695 0.189 -0.1506 1.711 -0.1506
1708782284.7554 1.701 0.188 -0.1707 1.717 -0.1707
1708782284.7628 1.707 0.187 -0.1940 1.724 -0.1940
1708782284.7727 1.714 0.186 -0.2173 1.730 -0.2173
1708782284.7794 1.719 0.184 -0.2390 1.735 -0.2390
1708782284.7872 1.726 0.183 -0.2608 1.742 -0.2608
1708782284.7969 1.732 0.181 -0.2810 1.749 -0.2810
1708782284.8034 1.738 0.179 -0.3011 1.755 -0.3011
1708782284.8114 1.744 0.177 -0.3260 1.762 -0.3260
1708782284.8203 1.750 0.175 -0.3462 1.767 -0.3462
1708782284.8268 1.755 0.173 -0.3663 1.774 -0.3663
1708782284.8355 1.761 0.171 -0.3850 1.780 -0.3850
1708782284.8442 1.766 0.169 -0.4036 1.785 -0.4036
1708782284.8518 1.772 0.166 -0.4253 1.791 -0.4253
1708782284.8602 1.778 0.163 -0.4502 1.798 -0.4502
1708782284.8690 1.785 0.160 -0.4719 1.806 -0.4719
1708782284.8755 1.790 0.157 -0.4890 1.812 -0.4890
1708782284.8830 1.796 0.154 -0.5107 1.818 -0.5107
1708782284.8928 1.800 0.151 -0.5278 1.823 -0.5278
1708782284.8994 1.805 0.148 -0.5464 1.829 -0.5464
1708782284.9072 1.812 0.144 -0.5666 1.837 -0.5666
1708782284.9166 1.817 0.141 -0.5836 1.843 -0.5836
1708782284.9231 1.822 0.138 -0.5992 1.849 -0.5992
1708782284.9317 1.827 0.134 -0.6162 1.856 -0.6162
1708782284.9406 1.833 0.130 -0.6318 1.862 -0.6318
1708782284.9471 1.838 0.126 -0.6473 1.868 -0.6473
1708782284.9548 1.843 0.122 -0.6659 1.875 -0.6659
1708782284.9644 1.847 0.119 -0.6814 1.881 -0.6814
1708782284.9717 1.852 0.115 -0.6923 1.886 -0.6923
1708782284.9795 1.857 0.111 -0.7063 1.893 -0.7063
1708782284.9883 1.862 0.106 -0.7265 1.900 -0.7265
1708782284.9948 1.867 0.102 -0.7435 1.907 -0.7435
1708782285.0037 1.871 0.098 -0.7559 1.913 -0.7559
1708782285.0121 1.875 0.094 -0.7668 1.918 -0.7668
1708782285.0203 1.880 0.089 -0.7854 1.925 -0.7854
1708782285.0282 1.885 0.084 -0.8025 1.932 -0.8025
1708782285.0361 1.889 0.080 -0.8149 1.938 -0.8149
1708782285.0437 1.893 0.076 -0.8289 1.944 -0.8289
1708782285.0514 1.897 0.071 -0.8475 1.950 -0.8475
1708782285.0611 1.902 0.066 -0.8631 1.957 -0.8631
1708782285.0674 1.906 0.061 -0.8770 1.963 -0.8770
1708782285.0762 1.910 0.056 -0.8879 1.970 -0.8879
1708782285.0851 1.913 0.052 -0.8988 1.975 -0.8988
1708782285.0916 1.917 0.048 -0.9174 1.980 -0.9174
1708782285.0994 1.921 0.042 -0.9345 1.987 -0.9345
1708782285.1081 1.925 0.037 -0.9500 1.994 -0.9500
1708782285.1154 1.928 0.032 -0.9640 2.000 -0.9640
1708782285.1242 1.932 0.027 -0.9810 2.006 -0.9810
1708782285.1330 1.935 0.021 -0.9965 2.013 -0.9965
1708782285.1396 1.939 0.015 -1.0121 2.020 -1.0121
1708782285.1474 1.943 0.010 -1.0260 2.026 -1.0260
1708782285.1562 1.946 0.005 -1.0400 2.032 -1.0400
1708782285.1634 1.948 -0.000 -1.0540 2.038 -1.0540
1708782285.1723 1.952 -0.007 -1.0648 2.045 -1.0648
1708782285.1804 1.955 -0.012 -1.0788 2.052 -1.0788
1708782285.1879 1.958 -0.018 -1.0959 2.058 -1.0959
1708782285.1966 1.961 -0.024 -1.1083 2.064 -1.1083
1708782285.2044 1.964 -0.029 -1.1145 2.070 -1.1145
1708782285.2116 1.967 -0.035 -1.1223 2.077 -1.1223
1708782285.2194 1.969 -0.041 -1.1363 2.084 -1.1363
1708782285.2284 1.972 -0.046 -1.1487 2.089 -1.1487
1708782285.2361 1.974 -0.052 -1.1549 2.095 -1.1549
1708782285.2439 1.977 -0.058 -1.1580 2.103 -1.1580
1708782285.2527 1.980 -0.064 -1.1688 2.109 -1.1688
1708782285.2599 1.982 -0.070 -1.1797 2.115 -1.1797
1708782285.2677 1.984 -0.075 -1.1875 2.121 -1.1875
1708782285.2765 1.986 -0.081 -1.1875 2.127 -1.1875
1708782285.2842 1.989 -0.087 -1.1890 2.133 -1.1890
1708782285.2918 1.991 -0.093 -1.1968 2.140 -1.1968
1708782285.3007 1.994 -0.099 -1.2030 2.146 -1.2030
1708782285.3073 1.996 -0.104 -1.2014 2.152 -1.2014
1708782285.3156 1.998 -0.111 -1.1999 2.159 -1.1999
1708782285.3245 2.000 -0.116 -1.2014 2.165 -1.2014
1708782285.3320 2.003 -0.122 -1.2014 2.171 -1.2014
1708782285.3397 2.005 -0.128 -1.2014 2.178 -1.2014
1708782285.3486 2.007 -0.134 -1.1983 2.184 -1.1983
1708782285.3552 2.010 -0.140 -1.1937 2.191 -1.1937
1708782285.3636 2.012 -0.146 -1.1937 2.197 -1.1937
1708782285.3725 2.014 -0.151 -1.1906 2.203 -1.1906
1708782285.3802 2.016 -0.157 -1.1844 2.209 -1.1844
1708782285.3880 2.019 -0.164 -1.1766 2.216 -1.1766
1708782285.3968 2.022 -0.170 -1.1735 2.222 -1.1735
1708782285.4034 2.024 -0.175 -1.1673 2.228 -1.1673
1708782285.4118 2.026 -0.181 -1.1595 2.234 -1.1595
1708782285.4208 2.029 -0.186 -1.1471 2.240 -1.1471
1708782285.4283 2.031 -0.192 -1.1363 2.247 -1.1363
1708782285.4360 2.035 -0.199 -1.1254 2.255 -1.1254
1708782285.4449 2.037 -0.204 -1.1207 2.261 -1.1207
1708782285.4515 2.040 -0.209 -1.1145 2.266 -1.1145
1708782285.4598 2.043 -0.215 -1.1037 2.272 -1.1037
1708782285.4685 2.045 -0.220 -1.0912 2.278 -1.0912
1708782285.4762 2.048 -0.226 -1.0726 2.285 -1.0726
1708782285.4839 2.051 -0.232 -1.0648 2.291 -1.0648
1708782285.4927 2.054 -0.237 -1.0633 2.298 -1.0633
1708782285.4993 2.058 -0.243 -1.0509 2.304 -1.0509
1708782285.5081 2.061 -0.248 -1.0354 2.311 -1.0354
1708782285.5164 2.064 -0.253 -1.0214 2.316 -1.0214
1708782285.5237 2.067 -0.259 -1.0105 2.323 -1.0105
1708782285.5315 2.071 -0.265 -0.9981 2.330 -0.9981
1708782285.5404 2.074 -0.270 -0.9872 2.336 -0.9872
1708782285.5480 2.078 -0.275 -0.9717 2.342 -0.9717
1708782285.5567 2.081 -0.280 -0.9562 2.348 -0.9562
1708782285.5641 2.085 -0.286 -0.9438 2.355 -0.9438
1708782285.5717 2.089 -0.291 -0.9298 2.361 -0.9298
1708782285.5797 2.093 -0.296 -0.9143 2.367 -0.9143
1708782285.5885 2.097 -0.300 -0.9003 2.374 -0.9003
1708782285.5961 2.101 -0.306 -0.8848 2.380 -0.8848
1708782285.6037 2.105 -0.311 -0.8755 2.387 -0.8755
1708782285.6122 2.109 -0.316 -0.8631 2.393 -0.8631
1708782285.6198 2.113 -0.320 -0.8491 2.399 -0.8491
1708782285.6275 2.117 -0.325 -0.8351 2.406 -0.8351
1708782285.6364 2.122 -0.330 -0.8242 2.412 -0.8242
1708782285.6440 2.126 -0.335 -0.8134 2.419 -0.8134
1708782285.6516 2.131 -0.339 -0.8041 2.425 -0.8041
1708782285.6612 2.135 -0.344 -0.7932 2.432 -0.7932
1708782285.6677 2.139 -0.348 -0.7823 2.437 -0.7823
1708782285.6755 2.144 -0.352 -0.7746 2.444 -0.7746
1708782285.6845 2.148 -0.357 -0.7715 2.450 -0.7715
1708782285.6920 2.153 -0.361 -0.7668 2.457 -0.7668
1708782285.6998 2.158 -0.366 -0.7591 2.463 -0.7591
1708782285.7086 2.162 -0.370 -0.7544 2.470 -0.7544
1708782285.7158 2.167 -0.375 -0.7497 2.476 -0.7497
1708782285.7236 2.172 -0.379 -0.7482 2.482 -0.7482
1708782285.7325 2.176 -0.383 -0.7451 2.488 -0.7451
1708782285.7399 2.181 -0.387 -0.7451 2.495 -0.7451
1708782285.7477 2.186 -0.392 -0.7435 2.501 -0.7435
1708782285.7566 2.190 -0.396 -0.7451 2.508 -0.7451
1708782285.7638 2.195 -0.400 -0.7482 2.514 -0.7482
1708782285.7716 2.200 -0.405 -0.7513 2.521 -0.7513
1708782285.7808 2.204 -0.409 -0.7528 2.527 -0.7528
