% Pose without folding and reset (log_20240224_134044.157/log_pose_abs.txt)
% 1 	Time (sec)
% 2,3 	Position x,y (m)
% 4 	heading (rad)
% 5 	Driven distance (m) - signed
% 6 	Turned angle (rad) - signed
1708778444.9419 0.000 0.000 0.0000 0.000 0.0000
1708778444.9513 0.000 0.000 0.0000 0.000 0.0000
1708778444.9612 0.000 0.000 0.0000 0.000 0.0000
1708778444.9679 0.000 0.000 0.0000 0.000 0.0000
1708778444.9776 0.000 0.000 0.0000 0.000 0.0000
1708778444.9857 0.000 0.000 0.0000 0.000 0.0000
1708778444.9938 0.000 0.000 0.0000 0.000 0.0000
1708778444.9989 0.000 0.000 0.0000 0.000 0.0000
1708778445.0042 0.000 0.000 0.0000 0.000 0.0000
1708778445.0123 0.000 0.000 0.0000 0.000 0.0000
1708778445.0210 0.000 0.000 0.0000 0.000 0.0000
1708778445.0292 0.000 0.000 0.0000 0.000 0.0000
1708778445.0372 0.000 0.000 0.0000 0.000 0.0000
1708778445.0441 0.000 0.000 0.0000 0.000 0.0000
1708778445.0528 0.000 0.000 0.0000 0.000 0.0000
1708778445.0601 0.000 0.000 0.0000 0.000 0.0000
1708778445.0687 0.001 0.000 0.0062 0.001 0.0062
1708778445.0772 0.003 0.000 0.0031 0.003 0.0031
1708778445.0845 0.005 0.000 -0.0016 0.005 -0.0016
1708778445.0923 0.006 0.000 -0.0016 0.006 -0.0016
1708778445.1019 0.008 0.000 0.0016 0.008 0.0016
1708778445.1087 0.011 0.000 0.0031 0.011 0.0031
1708778445.1171 0.015 0.000 0.0047 0.015 0.0047
1708778445.1244 0.017 0.000 0.0031 0.017 0.0031
1708778445.1331 0.019 0.000 0.0016 0.019 0.0016
1708778445.1412 0.023 0.000 0.0000 0.023 -0.0000
1708778445.1485 0.026 0.000 0.0000 0.026 -0.0000
1708778445.1569 0.029 0.000 0.0016 0.029 0.0016
1708778445.1649 0.033 0.000 0.0031 0.033 0.0031
1708778445.1732 0.037 0.000 0.0031 0.037 0.0031
1708778445.1809 0.040 0.000 0.0031 0.040 0.0031
1708778445.1891 0.044 0.000 0.0016 0.044 0.0016
1708778445.1963 0.048 0.000 0.0031 0.048 0.0031
1708778445.2044 0.052 0.000 0.0062 0.052 0.0062
1708778445.2124 0.057 0.000 0.0047 0.057 0.0047
1708778445.2210 0.062 0.000 0.0016 0.062 0.0016
1708778445.2288 0.067 0.000 0.0047 0.067 0.0047
1708778445.2371 0.071 0.000 0.0093 0.071 0.0093
1708778445.2443 0.075 0.000 0.0078 0.075 0.0078
1708778445.2522 0.079 0.000 0.0047 0.079 0.0047
1708778445.2610 0.084 0.000 0.0047 0.084 0.0047
1708778445.2683 0.088 0.000 0.0047 0.088 0.0047
1708778445.2766 0.093 0.000 0.0047 0.093 0.0047
1708778445.2845 0.097 0.000 0.0031 0.097 0.0031
1708778445.2927 0.101 0.000 0.0031 0.101 0.0031
1708778445.3018 0.106 0.000 0.0031 0.106 0.0031
1708778445.3089 0.110 0.000 0.0016 0.110 0.0016
1708778445.3166 0.114 0.000 -0.0016 0.114 -0.0016
1708778445.3244 0.118 0.000 -0.0016 0.118 -0.0016
1708778445.3331 0.122 0.000 -0.0000 0.122 -0.0000
1708778445.3415 0.126 0.000 -0.0031 0.126 -0.0031
1708778445.3494 0.130 0.000 -0.0078 0.130 -0.0078
1708778445.3573 0.135 0.000 -0.0078 0.135 -0.0078
1708778445.3649 0.139 0.000 -0.0047 0.139 -0.0047
1708778445.3727 0.142 0.000 -0.0047 0.142 -0.0047
1708778445.3809 0.146 0.000 -0.0062 0.146 -0.0062
1708778445.3895 0.150 0.000 -0.0109 0.150 -0.0109
1708778445.3972 0.155 0.000 -0.0124 0.155 -0.0124
1708778445.4048 0.159 0.000 -0.0109 0.159 -0.0109
1708778445.4132 0.162 0.000 -0.0109 0.162 -0.0109
1708778445.4206 0.165 0.000 -0.0140 0.165 -0.0140
1708778445.4282 0.170 -0.000 -0.0155 0.170 -0.0155
1708778445.4363 0.174 -0.000 -0.0140 0.174 -0.0140
1708778445.4447 0.178 -0.000 -0.0109 0.178 -0.0109
1708778445.4532 0.181 -0.000 -0.0093 0.181 -0.0093
1708778445.4605 0.185 -0.000 -0.0140 0.185 -0.0140
1708778445.4689 0.190 -0.000 -0.0171 0.190 -0.0171
1708778445.4767 0.194 -0.000 -0.0140 0.194 -0.0140
1708778445.4849 0.198 -0.000 -0.0124 0.198 -0.0124
1708778445.4923 0.201 -0.000 -0.0140 0.201 -0.0140
1708778445.5010 0.205 -0.001 -0.0171 0.205 -0.0171
1708778445.5082 0.209 -0.001 -0.0155 0.209 -0.0155
1708778445.5166 0.213 -0.001 -0.0155 0.213 -0.0155
1708778445.5244 0.217 -0.001 -0.0186 0.217 -0.0186
1708778445.5327 0.221 -0.001 -0.0233 0.221 -0.0233
1708778445.5410 0.225 -0.001 -0.0233 0.225 -0.0233
1708778445.5483 0.230 -0.001 -0.0202 0.230 -0.0202
1708778445.5564 0.233 -0.001 -0.0217 0.233 -0.0217
1708778445.5648 0.237 -0.001 -0.0264 0.237 -0.0264
1708778445.5727 0.241 -0.001 -0.0279 0.241 -0.0279
1708778445.5810 0.245 -0.001 -0.0295 0.245 -0.0295
1708778445.5883 0.249 -0.001 -0.0295 0.249 -0.0295
1708778445.5965 0.253 -0.002 -0.0279 0.253 -0.0279
1708778445.6047 0.257 -0.002 -0.0279 0.257 -0.0279
1708778445.6125 0.261 -0.002 -0.0326 0.261 -0.0326
1708778445.6205 0.265 -0.002 -0.0341 0.265 -0.0341
1708778445.6288 0.269 -0.002 -0.0326 0.269 -0.0326
1708778445.6372 0.273 -0.002 -0.0326 0.273 -0.0326
1708778445.6452 0.277 -0.002 -0.0357 0.277 -0.0357
1708778445.6535 0.281 -0.003 -0.0404 0.281 -0.0404
1708778445.6606 0.285 -0.003 -0.0388 0.285 -0.0388
1708778445.6686 0.289 -0.003 -0.0357 0.289 -0.0357
1708778445.6768 0.293 -0.003 -0.0373 0.293 -0.0373
1708778445.6852 0.297 -0.003 -0.0419 0.297 -0.0419
1708778445.6929 0.302 -0.003 -0.0450 0.302 -0.0450
1708778445.7020 0.305 -0.004 -0.0435 0.306 -0.0435
1708778445.7092 0.310 -0.004 -0.0435 0.310 -0.0435
1708778445.7171 0.314 -0.004 -0.0481 0.314 -0.0481
1708778445.7243 0.318 -0.004 -0.0497 0.318 -0.0497
1708778445.7327 0.321 -0.004 -0.0481 0.321 -0.0481
1708778445.7405 0.324 -0.004 -0.0466 0.324 -0.0466
1708778445.7501 0.329 -0.005 -0.0481 0.329 -0.0481
1708778445.7570 0.333 -0.005 -0.0497 0.333 -0.0497
1708778445.7648 0.338 -0.005 -0.0512 0.338 -0.0512
1708778445.7730 0.342 -0.005 -0.0497 0.342 -0.0497
1708778445.7803 0.345 -0.005 -0.0497 0.345 -0.0497
1708778445.7882 0.348 -0.006 -0.0528 0.349 -0.0528
1708778445.7963 0.353 -0.006 -0.0559 0.353 -0.0559
1708778445.8049 0.357 -0.006 -0.0559 0.358 -0.0559
1708778445.8128 0.361 -0.006 -0.0559 0.361 -0.0559
1708778445.8211 0.365 -0.006 -0.0559 0.365 -0.0559
1708778445.8284 0.369 -0.007 -0.0590 0.369 -0.0590
1708778445.8362 0.373 -0.007 -0.0605 0.373 -0.0605
1708778445.8445 0.377 -0.007 -0.0574 0.377 -0.0574
1708778445.8525 0.380 -0.007 -0.0559 0.380 -0.0559
1708778445.8604 0.384 -0.008 -0.0574 0.384 -0.0574
1708778445.8687 0.388 -0.008 -0.0621 0.389 -0.0621
1708778445.8776 0.392 -0.008 -0.0621 0.393 -0.0621
1708778445.8843 0.396 -0.008 -0.0590 0.396 -0.0590
1708778445.8926 0.400 -0.009 -0.0574 0.400 -0.0574
1708778445.9016 0.404 -0.009 -0.0621 0.404 -0.0621
1708778445.9083 0.408 -0.009 -0.0652 0.409 -0.0652
1708778445.9166 0.412 -0.009 -0.0652 0.413 -0.0652
1708778445.9247 0.416 -0.010 -0.0636 0.416 -0.0636
1708778445.9324 0.420 -0.010 -0.0636 0.420 -0.0636
1708778445.9412 0.424 -0.010 -0.0636 0.425 -0.0636
1708778445.9486 0.428 -0.010 -0.0667 0.429 -0.0667
1708778445.9563 0.432 -0.011 -0.0683 0.432 -0.0683
1708778445.9647 0.436 -0.011 -0.0683 0.436 -0.0683
1708778445.9731 0.440 -0.011 -0.0667 0.440 -0.0667
1708778445.9808 0.444 -0.011 -0.0636 0.445 -0.0636
1708778445.9891 0.449 -0.012 -0.0667 0.449 -0.0667
1708778445.9964 0.453 -0.012 -0.0699 0.453 -0.0699
1708778446.0050 0.456 -0.012 -0.0699 0.456 -0.0699
1708778446.0127 0.459 -0.012 -0.0652 0.460 -0.0652
1708778446.0210 0.464 -0.013 -0.0636 0.465 -0.0636
1708778446.0289 0.469 -0.013 -0.0667 0.469 -0.0667
1708778446.0372 0.473 -0.013 -0.0683 0.473 -0.0683
1708778446.0445 0.476 -0.014 -0.0699 0.476 -0.0699
1708778446.0524 0.480 -0.014 -0.0683 0.480 -0.0683
1708778446.0608 0.484 -0.014 -0.0683 0.484 -0.0683
1708778446.0687 0.488 -0.014 -0.0714 0.489 -0.0714
1708778446.0766 0.492 -0.015 -0.0730 0.492 -0.0730
1708778446.0849 0.495 -0.015 -0.0730 0.496 -0.0730
1708778446.0932 0.499 -0.015 -0.0714 0.500 -0.0714
1708778446.1018 0.504 -0.016 -0.0714 0.504 -0.0714
1708778446.1100 0.508 -0.016 -0.0761 0.509 -0.0761
1708778446.1166 0.512 -0.016 -0.0776 0.513 -0.0776
1708778446.1244 0.516 -0.016 -0.0761 0.516 -0.0761
1708778446.1325 0.519 -0.017 -0.0745 0.519 -0.0745
1708778446.1408 0.523 -0.017 -0.0730 0.523 -0.0730
1708778446.1484 0.527 -0.017 -0.0761 0.528 -0.0761
1708778446.1563 0.532 -0.018 -0.0807 0.533 -0.0807
1708778446.1648 0.535 -0.018 -0.0807 0.536 -0.0807
1708778446.1731 0.539 -0.018 -0.0792 0.539 -0.0792
1708778446.1803 0.543 -0.019 -0.0792 0.543 -0.0792
1708778446.1888 0.547 -0.019 -0.0823 0.548 -0.0823
1708778446.1969 0.552 -0.019 -0.0838 0.552 -0.0838
1708778446.2048 0.555 -0.020 -0.0854 0.556 -0.0854
1708778446.2132 0.559 -0.020 -0.0854 0.559 -0.0854
1708778446.2204 0.563 -0.020 -0.0869 0.564 -0.0869
1708778446.2287 0.568 -0.021 -0.0885 0.568 -0.0885
1708778446.2375 0.572 -0.021 -0.0869 0.572 -0.0869
1708778446.2443 0.575 -0.021 -0.0869 0.576 -0.0869
1708778446.2528 0.579 -0.022 -0.0869 0.579 -0.0869
1708778446.2612 0.583 -0.022 -0.0900 0.584 -0.0900
1708778446.2691 0.587 -0.022 -0.0900 0.588 -0.0900
1708778446.2765 0.591 -0.023 -0.0900 0.592 -0.0900
1708778446.2848 0.595 -0.023 -0.0900 0.596 -0.0900
1708778446.2925 0.598 -0.023 -0.0900 0.599 -0.0900
1708778446.3014 0.602 -0.024 -0.0931 0.603 -0.0931
1708778446.3090 0.607 -0.024 -0.0947 0.608 -0.0947
1708778446.3171 0.611 -0.025 -0.0900 0.612 -0.0900
1708778446.3244 0.615 -0.025 -0.0869 0.616 -0.0869
1708778446.3330 0.618 -0.025 -0.0916 0.619 -0.0916
1708778446.3409 0.623 -0.026 -0.0962 0.624 -0.0962
1708778446.3493 0.627 -0.026 -0.0993 0.628 -0.0993
1708778446.3564 0.631 -0.026 -0.0993 0.632 -0.0993
1708778446.3645 0.635 -0.027 -0.0962 0.636 -0.0962
1708778446.3728 0.638 -0.027 -0.0962 0.639 -0.0962
1708778446.3811 0.642 -0.028 -0.0993 0.643 -0.0993
1708778446.3891 0.647 -0.028 -0.1024 0.648 -0.1024
1708778446.3969 0.651 -0.028 -0.1024 0.652 -0.1024
1708778446.4050 0.655 -0.029 -0.1009 0.656 -0.1009
1708778446.4124 0.658 -0.029 -0.0978 0.660 -0.0978
1708778446.4203 0.662 -0.030 -0.1009 0.663 -0.1009
1708778446.4293 0.666 -0.030 -0.1071 0.667 -0.1071
1708778446.4362 0.671 -0.030 -0.1056 0.672 -0.1056
1708778446.4448 0.675 -0.031 -0.1009 0.676 -0.1009
1708778446.4528 0.678 -0.031 -0.1024 0.679 -0.1024
1708778446.4608 0.682 -0.032 -0.1056 0.683 -0.1056
1708778446.4701 0.686 -0.032 -0.1040 0.687 -0.1040
1708778446.4767 0.691 -0.033 -0.1009 0.692 -0.1009
1708778446.4846 0.695 -0.033 -0.1009 0.696 -0.1009
1708778446.4928 0.698 -0.033 -0.1040 0.699 -0.1040
1708778446.5017 0.701 -0.034 -0.1056 0.702 -0.1056
1708778446.5086 0.706 -0.034 -0.1056 0.707 -0.1056
1708778446.5167 0.710 -0.035 -0.1056 0.711 -0.1056
1708778446.5252 0.714 -0.035 -0.1024 0.715 -0.1024
1708778446.5331 0.717 -0.035 -0.1024 0.719 -0.1024
1708778446.5408 0.721 -0.036 -0.1024 0.722 -0.1024
1708778446.5492 0.725 -0.036 -0.1024 0.727 -0.1024
1708778446.5568 0.730 -0.037 -0.1040 0.731 -0.1040
1708778446.5652 0.733 -0.037 -0.1056 0.735 -0.1056
1708778446.5727 0.737 -0.037 -0.1040 0.738 -0.1040
1708778446.5806 0.740 -0.038 -0.1024 0.742 -0.1024
1708778446.5890 0.745 -0.038 -0.1024 0.746 -0.1024
1708778446.5963 0.749 -0.039 -0.1056 0.751 -0.1056
1708778446.6047 0.753 -0.039 -0.1071 0.755 -0.1071
1708778446.6130 0.757 -0.039 -0.1056 0.758 -0.1056
1708778446.6204 0.761 -0.040 -0.1040 0.762 -0.1040
1708778446.6283 0.764 -0.040 -0.1024 0.766 -0.1024
1708778446.6367 0.768 -0.041 -0.1024 0.770 -0.1024
1708778446.6447 0.772 -0.041 -0.1040 0.774 -0.1040
1708778446.6532 0.777 -0.041 -0.1009 0.778 -0.1009
1708778446.6603 0.781 -0.042 -0.0978 0.782 -0.0978
1708778446.6692 0.785 -0.042 -0.0978 0.786 -0.0978
1708778446.6764 0.788 -0.043 -0.0993 0.790 -0.0993
1708778446.6847 0.792 -0.043 -0.1009 0.794 -0.1009
1708778446.6936 0.796 -0.043 -0.0962 0.798 -0.0962
1708778446.7012 0.801 -0.044 -0.0900 0.802 -0.0900
1708778446.7085 0.805 -0.044 -0.0916 0.807 -0.0916
1708778446.7169 0.809 -0.045 -0.0931 0.811 -0.0931
1708778446.7248 0.812 -0.045 -0.0947 0.814 -0.0947
1708778446.7330 0.816 -0.045 -0.0916 0.818 -0.0916
1708778446.7402 0.820 -0.046 -0.0869 0.822 -0.0869
1708778446.7483 0.825 -0.046 -0.0838 0.827 -0.0838
1708778446.7563 0.829 -0.046 -0.0823 0.830 -0.0823
1708778446.7648 0.832 -0.047 -0.0838 0.834 -0.0838
1708778446.7726 0.836 -0.047 -0.0838 0.838 -0.0838
1708778446.7811 0.841 -0.047 -0.0823 0.842 -0.0823
1708778446.7883 0.845 -0.048 -0.0792 0.847 -0.0792
1708778446.7966 0.849 -0.048 -0.0776 0.851 -0.0776
1708778446.8055 0.852 -0.048 -0.0807 0.854 -0.0807
1708778446.8126 0.856 -0.049 -0.0807 0.858 -0.0807
1708778446.8207 0.860 -0.049 -0.0792 0.862 -0.0792
1708778446.8298 0.864 -0.049 -0.0776 0.866 -0.0776
1708778446.8371 0.868 -0.049 -0.0745 0.870 -0.0745
1708778446.8450 0.872 -0.050 -0.0730 0.874 -0.0730
1708778446.8529 0.876 -0.050 -0.0745 0.878 -0.0745
1708778446.8606 0.880 -0.050 -0.0730 0.882 -0.0730
1708778446.8686 0.884 -0.051 -0.0699 0.886 -0.0699
1708778446.8767 0.888 -0.051 -0.0699 0.890 -0.0699
1708778446.8850 0.892 -0.051 -0.0699 0.894 -0.0699
1708778446.8928 0.895 -0.051 -0.0699 0.898 -0.0699
1708778446.9018 0.899 -0.052 -0.0683 0.902 -0.0683
1708778446.9092 0.904 -0.052 -0.0652 0.906 -0.0652
1708778446.9170 0.908 -0.052 -0.0652 0.910 -0.0652
1708778446.9260 0.912 -0.053 -0.0636 0.914 -0.0636
1708778446.9333 0.915 -0.053 -0.0636 0.918 -0.0636
1708778446.9406 0.919 -0.053 -0.0636 0.921 -0.0636
1708778446.9489 0.923 -0.053 -0.0621 0.926 -0.0621
1708778446.9568 0.928 -0.054 -0.0590 0.930 -0.0590
1708778446.9645 0.931 -0.054 -0.0590 0.934 -0.0590
1708778446.9729 0.935 -0.054 -0.0605 0.938 -0.0605
1708778446.9811 0.939 -0.054 -0.0621 0.941 -0.0621
1708778446.9889 0.944 -0.055 -0.0590 0.946 -0.0590
1708778446.9972 0.948 -0.055 -0.0528 0.950 -0.0528
1708778447.0043 0.952 -0.055 -0.0512 0.954 -0.0512
1708778447.0133 0.955 -0.055 -0.0528 0.958 -0.0528
1708778447.0205 0.959 -0.055 -0.0574 0.962 -0.0574
1708778447.0288 0.964 -0.056 -0.0574 0.966 -0.0574
1708778447.0367 0.968 -0.056 -0.0528 0.970 -0.0528
1708778447.0449 0.972 -0.056 -0.0512 0.974 -0.0512
1708778447.0529 0.975 -0.056 -0.0528 0.978 -0.0528
1708778447.0607 0.980 -0.056 -0.0528 0.982 -0.0528
1708778447.0697 0.984 -0.057 -0.0512 0.986 -0.0512
1708778447.0770 0.987 -0.057 -0.0481 0.990 -0.0481
1708778447.0849 0.992 -0.057 -0.0466 0.994 -0.0466
1708778447.0925 0.996 -0.057 -0.0466 0.998 -0.0466
1708778447.1013 1.000 -0.057 -0.0481 1.002 -0.0481
1708778447.1092 1.003 -0.058 -0.0481 1.005 -0.0481
1708778447.1164 1.007 -0.058 -0.0466 1.009 -0.0466
1708778447.1248 1.011 -0.058 -0.0497 1.014 -0.0497
1708778447.1328 1.015 -0.058 -0.0466 1.017 -0.0466
1708778447.1418 1.019 -0.058 -0.0450 1.021 -0.0450
1708778447.1492 1.023 -0.059 -0.0450 1.025 -0.0450
1708778447.1571 1.027 -0.059 -0.0466 1.030 -0.0466
1708778447.1644 1.032 -0.059 -0.0435 1.034 -0.0435
1708778447.1727 1.035 -0.059 -0.0419 1.037 -0.0419
1708778447.1807 1.039 -0.059 -0.0388 1.041 -0.0388
1708778447.1899 1.043 -0.059 -0.0388 1.045 -0.0388
1708778447.1972 1.047 -0.060 -0.0373 1.049 -0.0373
1708778447.2053 1.051 -0.060 -0.0373 1.054 -0.0373
1708778447.2125 1.055 -0.060 -0.0357 1.057 -0.0357
1708778447.2209 1.058 -0.060 -0.0341 1.061 -0.0341
1708778447.2287 1.063 -0.060 -0.0341 1.065 -0.0341
1708778447.2369 1.067 -0.060 -0.0357 1.069 -0.0357
1708778447.2452 1.071 -0.060 -0.0357 1.073 -0.0357
1708778447.2529 1.074 -0.061 -0.0326 1.077 -0.0326
1708778447.2606 1.078 -0.061 -0.0310 1.081 -0.0310
1708778447.2690 1.082 -0.061 -0.0310 1.085 -0.0310
1708778447.2771 1.087 -0.061 -0.0326 1.089 -0.0326
1708778447.2852 1.091 -0.061 -0.0310 1.093 -0.0310
1708778447.2925 1.095 -0.061 -0.0279 1.097 -0.0279
1708778447.3011 1.099 -0.061 -0.0264 1.101 -0.0264
1708778447.3085 1.103 -0.061 -0.0295 1.105 -0.0295
1708778447.3174 1.107 -0.062 -0.0310 1.109 -0.0310
1708778447.3244 1.111 -0.062 -0.0264 1.113 -0.0264
1708778447.3333 1.115 -0.062 -0.0248 1.117 -0.0248
1708778447.3411 1.118 -0.062 -0.0264 1.121 -0.0264
1708778447.3489 1.123 -0.062 -0.0264 1.125 -0.0264
1708778447.3568 1.127 -0.062 -0.0264 1.130 -0.0264
1708778447.3652 1.131 -0.062 -0.0233 1.133 -0.0233
1708778447.3728 1.135 -0.062 -0.0233 1.137 -0.0233
1708778447.3812 1.139 -0.062 -0.0248 1.141 -0.0248
1708778447.3884 1.143 -0.062 -0.0248 1.146 -0.0248
1708778447.3972 1.147 -0.063 -0.0217 1.149 -0.0217
1708778447.4052 1.151 -0.063 -0.0202 1.153 -0.0202
1708778447.4126 1.154 -0.063 -0.0202 1.157 -0.0202
1708778447.4205 1.159 -0.063 -0.0217 1.161 -0.0217
1708778447.4289 1.163 -0.063 -0.0202 1.165 -0.0202
1708778447.4373 1.166 -0.063 -0.0217 1.169 -0.0217
1708778447.4451 1.170 -0.063 -0.0217 1.173 -0.0217
1708778447.4530 1.175 -0.063 -0.0217 1.177 -0.0217
1708778447.4612 1.179 -0.063 -0.0202 1.181 -0.0202
1708778447.4685 1.182 -0.063 -0.0202 1.185 -0.0202
1708778447.4768 1.186 -0.063 -0.0217 1.189 -0.0217
1708778447.4852 1.190 -0.063 -0.0217 1.193 -0.0217
1708778447.4933 1.194 -0.064 -0.0217 1.197 -0.0217
1708778447.5012 1.198 -0.064 -0.0202 1.201 -0.0202
1708778447.5089 1.202 -0.064 -0.0248 1.205 -0.0248
1708778447.5172 1.207 -0.064 -0.0279 1.209 -0.0279
1708778447.5244 1.211 -0.064 -0.0264 1.213 -0.0264
1708778447.5328 1.214 -0.064 -0.0217 1.217 -0.0217
1708778447.5407 1.218 -0.064 -0.0217 1.221 -0.0217
1708778447.5502 1.222 -0.064 -0.0248 1.225 -0.0248
1708778447.5575 1.227 -0.064 -0.0264 1.229 -0.0264
1708778447.5646 1.231 -0.064 -0.0248 1.233 -0.0248
1708778447.5729 1.234 -0.064 -0.0202 1.237 -0.0202
1708778447.5812 1.238 -0.065 -0.0233 1.240 -0.0233
1708778447.5885 1.242 -0.065 -0.0264 1.244 -0.0264
1708778447.5966 1.246 -0.065 -0.0264 1.249 -0.0264
1708778447.6050 1.250 -0.065 -0.0233 1.253 -0.0233
1708778447.6129 1.254 -0.065 -0.0217 1.256 -0.0217
1708778447.6212 1.258 -0.065 -0.0248 1.260 -0.0248
1708778447.6285 1.262 -0.065 -0.0279 1.265 -0.0279
1708778447.6363 1.267 -0.065 -0.0264 1.269 -0.0264
1708778447.6444 1.270 -0.065 -0.0233 1.272 -0.0233
1708778447.6523 1.274 -0.065 -0.0217 1.276 -0.0217
1708778447.6613 1.278 -0.066 -0.0233 1.280 -0.0233
1708778447.6685 1.283 -0.066 -0.0264 1.285 -0.0264
1708778447.6770 1.287 -0.066 -0.0248 1.289 -0.0248
1708778447.6848 1.290 -0.066 -0.0233 1.292 -0.0233
1708778447.6930 1.293 -0.066 -0.0233 1.296 -0.0233
1708778447.7013 1.298 -0.066 -0.0233 1.300 -0.0233
1708778447.7093 1.303 -0.066 -0.0233 1.305 -0.0233
1708778447.7165 1.307 -0.066 -0.0233 1.309 -0.0233
1708778447.7248 1.310 -0.066 -0.0217 1.313 -0.0217
1708778447.7330 1.313 -0.066 -0.0217 1.316 -0.0217
1708778447.7403 1.317 -0.066 -0.0217 1.320 -0.0217
1708778447.7488 1.322 -0.067 -0.0233 1.324 -0.0233
1708778447.7563 1.326 -0.067 -0.0233 1.328 -0.0233
1708778447.7646 1.329 -0.067 -0.0217 1.332 -0.0217
1708778447.7728 1.333 -0.067 -0.0202 1.335 -0.0202
1708778447.7812 1.337 -0.067 -0.0217 1.340 -0.0217
1708778447.7887 1.342 -0.067 -0.0202 1.345 -0.0202
1708778447.7971 1.346 -0.067 -0.0186 1.348 -0.0186
1708778447.8047 1.349 -0.067 -0.0186 1.352 -0.0186
1708778447.8130 1.353 -0.067 -0.0217 1.356 -0.0217
1708778447.8212 1.358 -0.067 -0.0233 1.360 -0.0233
1708778447.8290 1.362 -0.067 -0.0217 1.364 -0.0217
1708778447.8363 1.365 -0.067 -0.0202 1.368 -0.0202
1708778447.8449 1.369 -0.068 -0.0248 1.371 -0.0248
1708778447.8524 1.373 -0.068 -0.0264 1.375 -0.0264
1708778447.8613 1.377 -0.068 -0.0264 1.380 -0.0264
1708778447.8693 1.381 -0.068 -0.0233 1.384 -0.0233
1708778447.8774 1.386 -0.068 -0.0248 1.388 -0.0248
1708778447.8849 1.390 -0.068 -0.0279 1.392 -0.0279
1708778447.8933 1.393 -0.068 -0.0295 1.396 -0.0295
1708778447.9019 1.397 -0.068 -0.0279 1.399 -0.0279
1708778447.9099 1.401 -0.068 -0.0264 1.404 -0.0264
1708778447.9172 1.406 -0.069 -0.0279 1.408 -0.0279
1708778447.9258 1.410 -0.069 -0.0326 1.413 -0.0326
1708778447.9330 1.414 -0.069 -0.0341 1.416 -0.0341
1708778447.9414 1.417 -0.069 -0.0326 1.420 -0.0326
1708778447.9493 1.421 -0.069 -0.0326 1.424 -0.0326
1708778447.9570 1.426 -0.069 -0.0357 1.428 -0.0357
1708778447.9644 1.430 -0.069 -0.0388 1.432 -0.0388
1708778447.9733 1.433 -0.069 -0.0388 1.436 -0.0388
1708778447.9807 1.437 -0.070 -0.0388 1.439 -0.0388
1708778447.9891 1.441 -0.070 -0.0404 1.444 -0.0404
1708778447.9970 1.446 -0.070 -0.0419 1.448 -0.0419
1708778448.0052 1.450 -0.070 -0.0466 1.452 -0.0466
1708778448.0125 1.453 -0.070 -0.0481 1.456 -0.0481
1708778448.0209 1.457 -0.071 -0.0450 1.460 -0.0450
1708778448.0292 1.461 -0.071 -0.0450 1.464 -0.0450
1708778448.0366 1.466 -0.071 -0.0497 1.468 -0.0497
1708778448.0443 1.470 -0.071 -0.0512 1.472 -0.0512
1708778448.0526 1.473 -0.071 -0.0512 1.475 -0.0512
1708778448.0609 1.477 -0.071 -0.0481 1.479 -0.0481
