% Encoder logfile
% 1 	Time (sec)
% 2,3 	enc left, right
% 4,5 	encoder change left, right
1708778833.7406 3 4 3 4
1708778833.7482 19 21 16 17
1708778833.7564 28 32 9 11
1708778833.7637 31 36 3 4
1708778833.7713 30 36 -1 0
1708778833.7801 28 34 -2 -2
1708778833.7874 27 32 -1 -2
1708778833.7965 27 30 0 -2
1708778833.8032 27 28 0 -2
1708778833.8120 27 28 0 0
1708778833.8204 27 28 0 0
1708778833.8281 27 28 0 0
1708778833.8355 27 28 0 0
1708778833.8436 27 28 0 0
1708778833.8515 27 28 0 0
1708778833.8592 27 28 0 0
1708778833.8672 27 28 0 0
1708778833.8756 28 29 1 1
1708778833.8835 34 36 6 7
1708778833.8918 47 48 13 12
1708778833.8997 62 63 15 15
1708778833.9075 74 75 12 12
1708778833.9159 84 85 10 10
1708778833.9242 95 96 11 11
1708778833.9319 107 108 12 12
1708778833.9404 120 122 13 14
1708778833.9483 134 135 14 13
1708778833.9562 148 147 14 12
1708778833.9635 161 159 13 12
1708778833.9719 172 172 11 13
1708778833.9796 183 186 11 14
1708778833.9884 197 200 14 14
1708778833.9965 213 214 16 14
1708778834.0035 228 228 15 14
1708778834.0134 242 242 14 14
1708778834.0204 254 255 12 13
1708778834.0292 268 270 14 15
1708778834.0366 283 284 15 14
1708778834.0442 298 299 15 15
1708778834.0521 312 313 14 14
1708778834.0597 324 325 12 12
1708778834.0682 338 339 14 14
1708778834.0775 354 354 16 15
1708778834.0857 371 371 17 17
1708778834.0921 387 387 16 16
1708778834.1005 401 402 14 15
1708778834.1085 413 415 12 13
1708778834.1155 426 429 13 14
1708778834.1234 441 443 15 14
1708778834.1323 456 457 15 14
1708778834.1471 470 471 14 14
1708778834.1534 485 488 15 17
1708778834.1563 501 505 16 17
1708778834.1637 515 520 14 15
1708778834.1716 523 527 8 7
1708778834.1800 531 535 8 8
1708778834.1884 543 545 12 10
1708778834.1968 558 560 15 15
1708778834.2038 574 576 16 16
1708778834.2120 588 590 14 14
1708778834.2197 600 601 12 11
1708778834.2278 613 613 13 12
1708778834.2360 627 626 14 13
1708778834.2437 642 642 15 16
1708778834.2523 657 657 15 15
1708778834.2600 670 670 13 13
1708778834.2680 685 684 15 14
1708778834.2762 698 697 13 13
1708778834.2835 711 711 13 14
1708778834.2920 727 726 16 15
1708778834.2999 741 739 14 13
1708778834.3084 755 752 14 13
1708778834.3163 770 768 15 16
1708778834.3240 786 784 16 16
1708778834.3314 801 799 15 15
1708778834.3404 815 814 14 15
1708778834.3482 829 827 14 13
1708778834.3554 844 842 15 15
1708778834.3634 858 857 14 15
1708778834.3717 872 871 14 14
1708778834.3798 886 885 14 14
1708778834.3878 901 901 15 16
1708778834.3965 917 916 16 15
1708778834.4036 931 931 14 15
1708778834.4124 946 945 15 14
1708778834.4199 959 959 13 14
1708778834.4279 974 974 15 15
1708778834.4357 989 988 15 14
1708778834.4438 1003 1002 14 14
1708778834.4518 1017 1017 14 15
1708778834.4595 1032 1033 15 16
1708778834.4678 1048 1048 16 15
1708778834.4758 1062 1062 14 14
1708778834.4835 1076 1077 14 15
1708778834.4917 1091 1093 15 16
1708778834.4997 1106 1107 15 14
1708778834.5075 1122 1121 16 14
1708778834.5166 1137 1136 15 15
1708778834.5237 1150 1153 13 17
1708778834.5315 1165 1170 15 17
1708778834.5398 1181 1183 16 13
1708778834.5475 1195 1196 14 13
1708778834.5564 1209 1210 14 14
1708778834.5644 1224 1226 15 16
1708778834.5715 1241 1242 17 16
1708778834.5804 1256 1257 15 15
1708778834.5877 1268 1270 12 13
1708778834.5965 1282 1285 14 15
1708778834.6043 1299 1300 17 15
1708778834.6117 1316 1316 17 16
1708778834.6199 1331 1330 15 14
1708778834.6276 1344 1344 13 14
1708778834.6359 1358 1358 14 14
1708778834.6441 1373 1374 15 16
1708778834.6515 1388 1390 15 16
1708778834.6598 1403 1404 15 14
1708778834.6680 1417 1418 14 14
1708778834.6758 1431 1432 14 14
1708778834.6848 1447 1449 16 17
1708778834.6919 1463 1464 16 15
1708778834.7002 1478 1478 15 14
1708778834.7075 1492 1491 14 13
1708778834.7158 1506 1506 14 15
1708778834.7235 1520 1521 14 15
1708778834.7318 1535 1536 15 15
1708778834.7401 1550 1550 15 14
1708778834.7475 1566 1565 16 15
1708778834.7560 1581 1581 15 16
1708778834.7643 1594 1595 13 14
1708778834.7721 1608 1609 14 14
1708778834.7803 1624 1625 16 16
1708778834.7883 1640 1641 16 16
1708778834.7967 1654 1655 14 14
1708778834.8039 1667 1669 13 14
1708778834.8123 1683 1684 16 15
1708778834.8203 1698 1699 15 15
1708778834.8275 1713 1713 15 14
1708778834.8356 1727 1728 14 15
1708778834.8435 1741 1742 14 14
1708778834.8525 1756 1757 15 15
1708778834.8596 1772 1772 16 15
1708778834.8675 1787 1787 15 15
1708778834.8766 1801 1802 14 15
1708778834.8838 1815 1816 14 14
1708778834.8915 1831 1832 16 16
1708778834.9004 1845 1846 14 14
1708778834.9076 1858 1860 13 14
1708778834.9164 1872 1875 14 15
1708778834.9240 1888 1890 16 15
1708778834.9315 1904 1905 16 15
1708778834.9397 1919 1919 15 14
1708778834.9491 1933 1933 14 14
1708778834.9555 1948 1948 15 15
1708778834.9635 1963 1964 15 16
1708778834.9717 1976 1978 13 14
1708778834.9800 1990 1991 14 13
1708778834.9877 2006 2006 16 15
1708778834.9966 2022 2022 16 16
1708778835.0039 2036 2037 14 15
1708778835.0119 2051 2053 15 16
1708778835.0200 2066 2068 15 15
1708778835.0283 2080 2082 14 14
1708778835.0361 2095 2096 15 14
1708778835.0443 2111 2113 16 17
1708778835.0523 2126 2128 15 15
1708778835.0598 2139 2142 13 14
1708778835.0681 2154 2156 15 14
1708778835.0763 2170 2171 16 15
1708778835.0842 2185 2187 15 16
1708778835.0923 2200 2202 15 15
1708778835.1001 2214 2216 14 14
1708778835.1076 2229 2230 15 14
