% Pose without folding and reset (log_20240224_134713.616/log_pose_abs.txt)
% 1 	Time (sec)
% 2,3 	Position x,y (m)
% 4 	heading (rad)
% 5 	Driven distance (m) - signed
% 6 	Turned angle (rad) - signed
1708778833.7406 0.000 0.000 0.0000 0.000 0.0000
1708778833.7482 0.000 0.000 0.0000 0.000 0.0000
1708778833.7564 0.004 0.000 0.0031 0.004 0.0031
1708778833.7637 0.005 0.000 0.0047 0.005 0.0047
1708778833.7713 0.005 0.000 0.0062 0.005 0.0062
1708778833.7801 0.004 0.000 0.0062 0.004 0.0062
1708778833.7874 0.004 0.000 0.0047 0.004 0.0047
1708778833.7965 0.003 0.000 0.0016 0.003 0.0016
1708778833.8032 0.003 0.000 -0.0016 0.003 -0.0016
1708778833.8120 0.003 0.000 -0.0016 0.003 -0.0016
1708778833.8204 0.003 0.000 -0.0016 0.003 -0.0016
1708778833.8281 0.003 0.000 -0.0016 0.003 -0.0016
1708778833.8355 0.003 0.000 -0.0016 0.003 -0.0016
1708778833.8436 0.003 0.000 -0.0016 0.003 -0.0016
1708778833.8515 0.003 0.000 -0.0016 0.003 -0.0016
1708778833.8592 0.003 0.000 -0.0016 0.003 -0.0016
1708778833.8672 0.003 0.000 -0.0016 0.003 -0.0016
1708778833.8756 0.003 0.000 -0.0016 0.003 -0.0016
1708778833.8835 0.006 -0.000 -0.0000 0.006 -0.0000
1708778833.8918 0.010 -0.000 -0.0016 0.010 -0.0016
1708778833.8997 0.016 -0.000 -0.0016 0.016 -0.0016
1708778833.9075 0.021 -0.000 -0.0016 0.021 -0.0016
1708778833.9159 0.024 -0.000 -0.0016 0.024 -0.0016
1708778833.9242 0.028 -0.000 -0.0016 0.028 -0.0016
1708778833.9319 0.033 -0.000 -0.0016 0.033 -0.0016
1708778833.9404 0.038 -0.000 -0.0000 0.038 -0.0000
1708778833.9483 0.043 -0.000 -0.0016 0.043 -0.0016
1708778833.9562 0.048 -0.000 -0.0047 0.048 -0.0047
1708778833.9635 0.053 -0.000 -0.0062 0.053 -0.0062
1708778833.9719 0.057 -0.000 -0.0031 0.057 -0.0031
1708778833.9796 0.062 -0.000 0.0016 0.062 0.0016
1708778833.9884 0.067 -0.000 0.0016 0.067 0.0016
1708778833.9965 0.073 -0.000 -0.0016 0.073 -0.0016
1708778834.0035 0.078 -0.000 -0.0031 0.078 -0.0031
1708778834.0134 0.084 -0.000 -0.0031 0.084 -0.0031
1708778834.0204 0.088 -0.000 -0.0016 0.088 -0.0016
1708778834.0292 0.094 -0.000 0.0000 0.094 0.0000
1708778834.0366 0.099 -0.000 -0.0016 0.099 -0.0016
1708778834.0442 0.105 -0.000 -0.0016 0.105 -0.0016
1708778834.0521 0.110 -0.000 -0.0016 0.110 -0.0016
1708778834.0597 0.115 -0.000 -0.0016 0.115 -0.0016
1708778834.0682 0.120 -0.000 -0.0016 0.120 -0.0016
1708778834.0775 0.126 -0.000 -0.0031 0.126 -0.0031
1708778834.0857 0.132 -0.000 -0.0031 0.132 -0.0031
1708778834.0921 0.138 -0.000 -0.0031 0.138 -0.0031
1708778834.1005 0.144 -0.000 -0.0016 0.144 -0.0016
1708778834.1085 0.149 -0.000 0.0000 0.149 0.0000
1708778834.1155 0.154 -0.000 0.0016 0.154 0.0016
1708778834.1234 0.159 -0.000 0.0000 0.159 0.0000
1708778834.1323 0.165 -0.000 -0.0016 0.165 -0.0016
1708778834.1471 0.170 -0.000 -0.0016 0.170 -0.0016
1708778834.1534 0.176 -0.000 0.0016 0.176 0.0016
1708778834.1563 0.182 -0.000 0.0031 0.182 0.0031
1708778834.1637 0.188 -0.000 0.0047 0.188 0.0047
1708778834.1716 0.190 -0.000 0.0031 0.190 0.0031
1708778834.1800 0.194 -0.000 0.0031 0.194 0.0031
1708778834.1884 0.198 -0.000 0.0000 0.198 0.0000
1708778834.1968 0.203 -0.000 0.0000 0.203 0.0000
1708778834.2038 0.209 -0.000 0.0000 0.209 0.0000
1708778834.2120 0.215 -0.000 0.0000 0.215 0.0000
1708778834.2197 0.219 -0.000 -0.0016 0.219 -0.0016
1708778834.2278 0.224 -0.000 -0.0031 0.224 -0.0031
1708778834.2360 0.229 -0.000 -0.0047 0.229 -0.0047
1708778834.2437 0.235 -0.000 -0.0031 0.235 -0.0031
1708778834.2523 0.240 -0.000 -0.0031 0.240 -0.0031
1708778834.2600 0.245 -0.000 -0.0031 0.245 -0.0031
1708778834.2680 0.251 -0.000 -0.0047 0.251 -0.0047
1708778834.2762 0.256 -0.000 -0.0047 0.256 -0.0047
1708778834.2835 0.261 -0.000 -0.0031 0.261 -0.0031
1708778834.2920 0.266 -0.000 -0.0047 0.266 -0.0047
1708778834.2999 0.272 -0.000 -0.0062 0.272 -0.0062
1708778834.3084 0.277 -0.000 -0.0078 0.277 -0.0078
1708778834.3163 0.283 -0.000 -0.0062 0.283 -0.0062
1708778834.3240 0.289 -0.001 -0.0062 0.289 -0.0062
1708778834.3314 0.294 -0.001 -0.0062 0.294 -0.0062
1708778834.3404 0.300 -0.001 -0.0047 0.300 -0.0047
1708778834.3482 0.305 -0.001 -0.0062 0.305 -0.0062
1708778834.3554 0.310 -0.001 -0.0062 0.310 -0.0062
1708778834.3634 0.316 -0.001 -0.0047 0.316 -0.0047
1708778834.3717 0.321 -0.001 -0.0047 0.321 -0.0047
1708778834.3798 0.326 -0.001 -0.0047 0.326 -0.0047
1708778834.3878 0.332 -0.001 -0.0031 0.332 -0.0031
1708778834.3965 0.338 -0.001 -0.0047 0.338 -0.0047
1708778834.4036 0.344 -0.001 -0.0031 0.344 -0.0031
1708778834.4124 0.349 -0.001 -0.0047 0.349 -0.0047
1708778834.4199 0.354 -0.001 -0.0031 0.354 -0.0031
1708778834.4279 0.360 -0.001 -0.0031 0.360 -0.0031
1708778834.4357 0.365 -0.001 -0.0047 0.365 -0.0047
1708778834.4438 0.371 -0.001 -0.0047 0.371 -0.0047
1708778834.4518 0.376 -0.001 -0.0031 0.376 -0.0031
1708778834.4595 0.382 -0.001 -0.0016 0.382 -0.0016
1708778834.4678 0.388 -0.001 -0.0031 0.388 -0.0031
1708778834.4758 0.393 -0.001 -0.0031 0.393 -0.0031
1708778834.4835 0.399 -0.001 -0.0016 0.399 -0.0016
1708778834.4917 0.404 -0.001 -0.0000 0.404 -0.0000
1708778834.4997 0.410 -0.001 -0.0016 0.410 -0.0016
1708778834.5075 0.415 -0.001 -0.0047 0.415 -0.0047
1708778834.5166 0.421 -0.001 -0.0047 0.421 -0.0047
1708778834.5237 0.427 -0.001 0.0016 0.427 0.0016
1708778834.5315 0.433 -0.001 0.0047 0.433 0.0047
1708778834.5398 0.438 -0.001 -0.0000 0.438 -0.0000
1708778834.5475 0.443 -0.001 -0.0016 0.443 -0.0016
1708778834.5564 0.449 -0.001 -0.0016 0.449 -0.0016
1708778834.5644 0.455 -0.001 -0.0000 0.455 -0.0000
1708778834.5715 0.461 -0.001 -0.0016 0.461 -0.0016
1708778834.5804 0.466 -0.001 -0.0016 0.466 -0.0016
1708778834.5877 0.471 -0.001 -0.0000 0.471 -0.0000
1708778834.5965 0.477 -0.001 0.0016 0.477 0.0016
1708778834.6043 0.483 -0.001 -0.0016 0.483 -0.0016
1708778834.6117 0.489 -0.001 -0.0031 0.489 -0.0031
1708778834.6199 0.494 -0.001 -0.0047 0.494 -0.0047
1708778834.6276 0.499 -0.001 -0.0031 0.499 -0.0031
1708778834.6359 0.505 -0.001 -0.0031 0.505 -0.0031
1708778834.6441 0.511 -0.001 -0.0016 0.511 -0.0016
1708778834.6515 0.516 -0.001 -0.0000 0.516 -0.0000
1708778834.6598 0.522 -0.001 -0.0016 0.522 -0.0016
1708778834.6680 0.527 -0.001 -0.0016 0.527 -0.0016
1708778834.6758 0.532 -0.001 -0.0016 0.532 -0.0016
1708778834.6848 0.539 -0.001 -0.0000 0.539 -0.0000
1708778834.6919 0.544 -0.001 -0.0016 0.544 -0.0016
1708778834.7002 0.550 -0.001 -0.0031 0.550 -0.0031
1708778834.7075 0.555 -0.001 -0.0047 0.555 -0.0047
1708778834.7158 0.561 -0.001 -0.0031 0.561 -0.0031
1708778834.7235 0.566 -0.001 -0.0016 0.566 -0.0016
1708778834.7318 0.572 -0.001 -0.0016 0.572 -0.0016
1708778834.7401 0.577 -0.001 -0.0031 0.577 -0.0031
1708778834.7475 0.583 -0.001 -0.0047 0.583 -0.0047
1708778834.7560 0.589 -0.001 -0.0031 0.589 -0.0031
1708778834.7643 0.594 -0.001 -0.0016 0.594 -0.0016
1708778834.7721 0.599 -0.001 -0.0016 0.599 -0.0016
1708778834.7803 0.605 -0.001 -0.0016 0.605 -0.0016
1708778834.7883 0.611 -0.001 -0.0016 0.611 -0.0016
1708778834.7967 0.617 -0.001 -0.0016 0.617 -0.0016
1708778834.8039 0.622 -0.001 -0.0000 0.622 -0.0000
1708778834.8123 0.627 -0.001 -0.0016 0.627 -0.0016
1708778834.8203 0.633 -0.001 -0.0016 0.633 -0.0016
1708778834.8275 0.639 -0.001 -0.0031 0.639 -0.0031
1708778834.8356 0.644 -0.001 -0.0016 0.644 -0.0016
1708778834.8435 0.649 -0.001 -0.0016 0.649 -0.0016
1708778834.8525 0.655 -0.001 -0.0016 0.655 -0.0016
1708778834.8596 0.661 -0.001 -0.0031 0.661 -0.0031
1708778834.8675 0.667 -0.001 -0.0031 0.667 -0.0031
1708778834.8766 0.672 -0.001 -0.0016 0.672 -0.0016
1708778834.8838 0.677 -0.001 -0.0016 0.677 -0.0016
1708778834.8915 0.683 -0.001 -0.0016 0.683 -0.0016
1708778834.9004 0.689 -0.001 -0.0016 0.689 -0.0016
1708778834.9076 0.694 -0.001 -0.0000 0.694 -0.0000
1708778834.9240 0.705 -0.001 -0.0000 0.705 -0.0000
1708778834.9315 0.711 -0.001 -0.0016 0.711 -0.0016
1708778834.9397 0.716 -0.001 -0.0031 0.716 -0.0031
1708778834.9491 0.722 -0.001 -0.0031 0.722 -0.0031
1708778834.9555 0.727 -0.002 -0.0031 0.727 -0.0031
1708778834.9635 0.733 -0.002 -0.0016 0.733 -0.0016
1708778834.9717 0.738 -0.002 -0.0000 0.738 -0.0000
1708778834.9800 0.743 -0.002 -0.0016 0.743 -0.0016
1708778834.9877 0.749 -0.002 -0.0031 0.749 -0.0031
1708778834.9966 0.755 -0.002 -0.0031 0.755 -0.0031
1708778835.0039 0.761 -0.002 -0.0016 0.761 -0.0016
1708778835.0119 0.766 -0.002 -0.0000 0.766 -0.0000
1708778835.0200 0.772 -0.002 -0.0000 0.772 -0.0000
1708778835.0283 0.777 -0.002 -0.0000 0.777 -0.0000
1708778835.0361 0.783 -0.002 -0.0016 0.783 -0.0016
1708778835.0443 0.789 -0.002 -0.0000 0.789 -0.0000
1708778835.0523 0.795 -0.002 -0.0000 0.795 -0.0000
1708778835.0598 0.800 -0.002 0.0016 0.800 0.0016
1708778835.0681 0.805 -0.002 -0.0000 0.805 -0.0000
1708778835.0763 0.811 -0.002 -0.0016 0.811 -0.0016
1708778835.0842 0.817 -0.002 -0.0000 0.817 -0.0000
1708778835.0923 0.823 -0.002 -0.0000 0.823 -0.0000
1708778835.1001 0.828 -0.002 -0.0000 0.828 -0.0000
1708778835.1076 0.833 -0.002 -0.0016 0.833 -0.0016
