% Encoder logfile
% 1 	Time (sec)
% 2,3 	enc left, right
% 4,5 	encoder change left, right
1708779810.6746 0 0 0 0
1708779810.6823 0 0 0 0
1708779810.6895 0 0 0 0
1708779810.6982 0 0 0 0
1708779810.7052 1 1 1 1
1708779810.7134 7 8 6 7
1708779810.7221 17 16 10 8
1708779810.7298 25 20 8 4
1708779810.7377 30 26 5 6
1708779810.7453 38 35 8 9
1708779810.7534 49 46 11 11
1708779810.7615 61 58 12 12
1708779810.7692 73 70 12 12
1708779810.7773 87 83 14 13
1708779810.7859 102 101 15 18
1708779810.7937 118 118 16 17
1708779810.8019 136 133 18 15
1708779810.8102 153 148 17 15
1708779810.8179 171 164 18 16
1708779810.8259 190 181 19 17
1708779810.8338 208 197 18 16
1708779810.8419 226 214 18 17
1708779810.8544 245 230 19 16
1708779810.8638 263 247 18 17
1708779810.8682 282 264 19 17
1708779810.8732 303 282 21 18
1708779810.8819 315 294 12 12
1708779810.8896 323 304 8 10
1708779810.8979 338 320 15 16
1708779810.9053 358 341 20 21
1708779810.9137 378 360 20 19
1708779810.9218 393 376 15 16
1708779810.9305 409 390 16 14
1708779810.9382 425 403 16 13
1708779810.9456 443 418 18 15
1708779810.9537 461 437 18 19
1708779810.9613 479 456 18 19
1708779810.9696 497 475 18 19
1708779810.9783 513 492 16 17
1708779810.9858 531 508 18 16
1708779810.9935 550 528 19 20
1708779811.0012 568 547 18 19
1708779811.0095 583 562 15 15
1708779811.0222 599 575 16 13
1708779811.0253 617 591 18 16
1708779811.0333 637 609 20 18
1708779811.0416 653 625 16 16
1708779811.0493 668 640 15 15
1708779811.0573 682 656 14 16
1708779811.0657 698 675 16 19
1708779811.0741 715 692 17 17
1708779811.0826 730 708 15 16
1708779811.0901 745 724 15 16
1708779811.0973 761 743 16 19
1708779811.1056 776 760 15 17
1708779811.1141 790 775 14 15
1708779811.1215 807 792 17 17
1708779811.1301 824 811 17 19
1708779811.1375 838 829 14 18
1708779811.1458 851 845 13 16
1708779811.1537 866 861 15 16
1708779811.1620 883 878 17 17
1708779811.1692 899 896 16 18
1708779811.1783 912 915 13 19
1708779811.1860 925 932 13 17
1708779811.1933 942 950 17 18
1708779811.2022 960 967 18 17
1708779811.2097 974 982 14 15
1708779811.2173 988 1000 14 18
1708779811.2277 1003 1018 15 18
1708779811.2357 1020 1035 17 17
1708779811.2437 1037 1055 17 20
1708779811.2534 1054 1074 17 19
1708779811.2600 1068 1092 14 18
1708779811.2696 1081 1110 13 18
1708779811.2860 1094 1127 13 17
1708779811.2907 1109 1144 15 17
1708779811.2988 1127 1164 18 20
1708779811.3051 1148 1186 21 22
1708779811.3094 1162 1203 14 17
1708779811.3140 1174 1219 12 16
1708779811.3216 1183 1233 9 14
1708779811.3306 1190 1245 7 12
1708779811.3378 1203 1259 13 14
1708779811.3457 1219 1279 16 20
1708779811.3540 1233 1298 14 19
1708779811.3613 1246 1315 13 17
1708779811.3702 1261 1331 15 16
1708779811.3781 1277 1347 16 16
1708779811.3862 1294 1366 17 19
1708779811.3942 1308 1385 14 19
1708779811.4016 1321 1401 13 16
1708779811.4099 1335 1417 14 16
1708779811.4179 1350 1436 15 19
1708779811.4253 1367 1454 17 18
1708779811.4336 1382 1473 15 19
1708779811.4420 1395 1489 13 16
1708779811.4497 1409 1507 14 18
1708779811.4573 1426 1526 17 19
1708779811.4658 1443 1543 17 17
1708779811.4734 1457 1559 14 16
1708779811.4815 1471 1578 14 19
1708779811.4896 1487 1597 16 19
1708779811.4972 1504 1615 17 18
1708779811.5052 1519 1632 15 17
1708779811.5133 1533 1649 14 17
1708779811.5221 1549 1667 16 18
1708779811.5303 1567 1686 18 19
1708779811.5373 1584 1705 17 19
1708779811.5456 1599 1721 15 16
1708779811.5541 1612 1735 13 14
1708779811.5622 1628 1753 16 18
1708779811.5696 1647 1773 19 20
1708779811.5780 1665 1792 18 19
1708779811.5853 1679 1808 14 16
1708779811.5938 1694 1824 15 16
1708779811.6024 1712 1841 18 17
1708779811.6102 1731 1859 19 18
1708779811.6172 1748 1878 17 19
1708779811.6255 1763 1895 15 17
1708779811.6339 1777 1911 14 16
1708779811.6421 1795 1926 18 15
1708779811.6493 1815 1945 20 19
1708779811.6580 1832 1964 17 19
1708779811.6661 1847 1978 15 14
1708779811.6732 1864 1993 17 15
1708779811.6812 1882 2010 18 17
1708779811.6893 1900 2027 18 17
1708779811.6975 1917 2042 17 15
1708779811.7062 1934 2058 17 16
1708779811.7133 1952 2076 18 18
1708779811.7214 1969 2094 17 18
1708779811.7307 1985 2107 16 13
1708779811.7377 2003 2120 18 13
1708779811.7459 2024 2137 21 17
1708779811.7535 2042 2156 18 19
1708779811.7618 2058 2171 16 15
1708779811.7698 2075 2186 17 15
1708779811.7775 2095 2202 20 16
1708779811.7857 2114 2217 19 15
1708779811.7932 2131 2231 17 14
1708779811.8020 2147 2246 16 15
1708779811.8101 2166 2263 19 17
1708779811.8180 2185 2282 19 19
1708779811.8257 2204 2298 19 16
1708779811.8333 2222 2311 18 13
1708779811.8415 2240 2324 18 13
1708779811.8492 2259 2342 19 18
1708779811.8573 2278 2358 19 16
1708779811.8653 2295 2372 17 14
1708779811.8741 2313 2386 18 14
1708779811.8814 2333 2401 20 15
1708779811.8896 2353 2417 20 16
1708779811.8973 2369 2433 16 16
1708779811.9052 2386 2447 17 14
1708779811.9133 2406 2461 20 14
1708779811.9220 2425 2476 19 15
1708779811.9297 2444 2493 19 17
1708779811.9379 2463 2511 19 18
1708779811.9456 2481 2527 18 16
1708779811.9535 2499 2541 18 14
1708779811.9616 2517 2555 18 14
1708779811.9693 2536 2571 19 16
1708779811.9774 2555 2589 19 18
1708779811.9862 2571 2603 16 14
1708779811.9936 2588 2616 17 13
1708779812.0018 2608 2633 20 17
1708779812.0100 2626 2652 18 19
1708779812.0176 2642 2668 16 16
1708779812.0257 2660 2683 18 15
1708779812.0334 2678 2698 18 15
1708779812.0419 2696 2715 18 17
1708779812.0500 2713 2733 17 18
1708779812.0582 2731 2749 18 16
1708779812.0658 2750 2765 19 16
1708779812.0740 2767 2782 17 17
1708779812.0821 2782 2799 15 17
1708779812.0895 2800 2816 18 17
1708779812.0977 2818 2833 18 17
1708779812.1059 2835 2849 17 16
1708779812.1136 2851 2866 16 17
1708779812.1217 2867 2884 16 18
1708779812.1304 2885 2901 18 17
1708779812.1381 2903 2918 18 17
1708779812.1462 2921 2936 18 18
1708779812.1533 2936 2953 15 17
1708779812.1622 2951 2970 15 17
1708779812.1693 2967 2985 16 15
1708779812.1772 2984 3003 17 18
1708779812.1856 2999 3021 15 18
1708779812.1938 3015 3038 16 17
1708779812.2020 3033 3056 18 18
1708779812.2097 3050 3075 17 19
1708779812.2178 3065 3091 15 16
1708779812.2257 3079 3106 14 15
1708779812.2340 3096 3123 17 17
1708779812.2421 3114 3143 18 20
1708779812.2492 3130 3163 16 20
1708779812.2579 3144 3179 14 16
1708779812.2658 3158 3194 14 15
1708779812.2740 3174 3213 16 19
1708779812.2812 3191 3234 17 21
1708779812.2893 3208 3252 17 18
1708779812.2974 3221 3267 13 15
1708779812.3161 3254 3309 33 42
1708779812.3235 3271 3329 17 20
1708779812.3318 3288 3349 17 20
1708779812.3405 3303 3366 15 17
1708779812.3481 3318 3382 15 16
1708779812.3558 3335 3401 17 19
1708779812.3642 3352 3421 17 20
1708779812.3718 3366 3439 14 18
1708779812.3798 3382 3455 16 16
1708779812.3885 3398 3472 16 17
1708779812.3962 3415 3490 17 18
1708779812.4039 3432 3511 17 21
1708779812.4124 3447 3529 15 18
1708779812.4200 3461 3544 14 15
1708779812.4277 3477 3562 16 18
1708779812.4360 3494 3580 17 18
1708779812.4447 3511 3601 17 21
1708779812.4521 3527 3619 16 18
1708779812.4619 3543 3636 16 17
1708779812.4684 3559 3653 16 17
1708779812.4771 3576 3671 17 18
1708779812.4858 3592 3688 16 17
1708779812.4922 3607 3705 15 17
1708779812.5007 3624 3724 17 19
1708779812.5095 3639 3741 15 17
1708779812.5170 3655 3758 16 17
1708779812.5247 3673 3777 18 19
1708779812.5330 3690 3795 17 18
1708779812.5405 3706 3811 16 16
1708779812.5491 3721 3827 15 16
1708779812.5583 3738 3845 17 18
1708779812.5649 3756 3864 18 19
1708779812.5727 3773 3882 17 18
1708779812.5811 3787 3896 14 14
1708779812.5884 3802 3912 15 16
1708779812.5962 3820 3931 18 19
1708779812.6049 3838 3950 18 19
1708779812.6124 3853 3965 15 15
1708779812.6201 3870 3981 17 16
1708779812.6289 3887 3999 17 18
1708779812.6369 3903 4016 16 17
1708779812.6447 3920 4034 17 18
1708779812.6535 3938 4051 18 17
1708779812.6611 3954 4068 16 17
1708779812.6688 3971 4085 17 17
1708779812.6784 3989 4102 18 17
1708779812.6845 4005 4118 16 16
1708779812.6922 4021 4136 16 18
1708779812.7011 4035 4152 14 16
1708779812.7087 4052 4168 17 16
1708779812.7170 4071 4184 19 16
1708779812.7257 4088 4201 17 17
1708779812.7328 4105 4219 17 18
1708779812.7405 4122 4236 17 17
1708779812.7492 4139 4251 17 15
1708779812.7568 4156 4266 17 15
1708779812.7645 4173 4285 17 19
1708779812.7732 4190 4302 17 17
1708779812.7803 4207 4316 17 14
1708779812.7890 4226 4331 19 15
1708779812.7978 4243 4349 17 18
1708779812.8042 4261 4367 18 18
1708779812.8128 4280 4384 19 17
1708779812.8215 4296 4396 16 12
1708779812.8291 4313 4411 17 15
1708779812.8364 4333 4429 20 18
1708779812.8452 4351 4446 18 17
1708779812.8527 4369 4461 18 15
1708779812.8602 4387 4477 18 16
1708779812.8689 4404 4492 17 15
1708779812.8771 4422 4507 18 15
1708779812.8843 4440 4524 18 17
1708779812.8933 4460 4540 20 16
1708779812.9009 4476 4554 16 14
1708779812.9083 4493 4569 17 15
1708779812.9172 4512 4585 19 16
1708779812.9247 4530 4601 18 16
1708779812.9331 4549 4617 19 16
1708779812.9418 4566 4633 17 16
1708779812.9481 4583 4650 17 17
1708779812.9570 4601 4666 18 16
1708779812.9658 4616 4679 15 13
1708779812.9723 4633 4692 17 13
1708779812.9807 4653 4709 20 17
1708779812.9894 4671 4725 18 16
1708779812.9968 4688 4741 17 16
1708779813.0045 4707 4758 19 17
1708779813.0135 4725 4773 18 15
1708779813.0211 4742 4787 17 14
1708779813.0289 4760 4804 18 17
1708779813.0380 4778 4821 18 17
1708779813.0446 4795 4837 17 16
1708779813.0525 4814 4853 19 16
1708779813.0614 4830 4868 16 15
1708779813.0691 4845 4885 15 17
1708779813.0768 4863 4902 18 17
1708779813.0851 4883 4919 20 17
1708779813.0926 4900 4934 17 15
1708779813.1005 4915 4950 15 16
1708779813.1095 4931 4968 16 18
1708779813.1171 4950 4986 19 18
1708779813.1249 4970 5003 20 17
1708779813.1332 4986 5018 16 15
1708779813.1401 5000 5033 14 15
1708779813.1490 5016 5052 16 19
1708779813.1580 5033 5069 17 17
1708779813.1645 5053 5084 20 15
1708779813.1721 5072 5103 19 19
1708779813.1817 5085 5120 13 17
1708779813.1884 5098 5136 13 16
1708779813.1963 5116 5153 18 17
1708779813.2052 5134 5170 18 17
1708779813.2128 5150 5188 16 18
1708779813.2205 5166 5206 16 18
1708779813.2297 5182 5222 16 16
1708779813.2371 5197 5238 15 16
1708779813.2449 5214 5258 17 20
1708779813.2538 5231 5276 17 18
1708779813.2604 5246 5293 15 17
1708779813.2681 5262 5311 16 18
1708779813.2770 5277 5327 15 16
1708779813.2843 5292 5344 15 17
1708779813.2921 5310 5363 18 19
1708779813.3011 5327 5380 17 17
1708779813.3089 5342 5397 15 17
1708779813.3167 5358 5415 16 18
1708779813.3255 5375 5435 17 20
1708779813.3328 5390 5453 15 18
1708779813.3407 5407 5470 17 17
1708779813.3495 5422 5486 15 16
1708779813.3571 5437 5504 15 18
1708779813.3650 5454 5524 17 20
1708779813.3739 5471 5542 17 18
1708779813.3808 5486 5558 15 16
1708779813.3884 5503 5577 17 19
1708779813.3983 5517 5594 14 17
1708779813.4049 5531 5609 14 15
1708779813.4128 5548 5628 17 19
1708779813.4218 5564 5646 16 18
1708779813.4284 5580 5663 16 17
1708779813.4368 5596 5680 16 17
1708779813.4455 5611 5697 15 17
1708779813.4531 5628 5716 17 19
1708779813.4610 5647 5736 19 20
1708779813.4698 5663 5754 16 18
1708779813.4764 5677 5770 14 16
1708779813.4849 5692 5789 15 19
1708779813.4944 5708 5805 16 16
1708779813.5012 5726 5822 18 17
1708779813.5086 5745 5841 19 19
1708779813.5177 5758 5858 13 17
1708779813.5243 5770 5874 12 16
1708779813.5330 5786 5891 16 17
1708779813.5416 5804 5907 18 16
1708779813.5485 5824 5925 20 18
1708779813.5564 5840 5945 16 20
1708779813.5656 5854 5962 14 17
1708779813.5722 5868 5976 14 14
1708779813.5808 5886 5993 18 17
1708779813.5899 5902 6011 16 18
1708779813.5967 5918 6029 16 18
1708779813.6048 5936 6048 18 19
1708779813.6140 5951 6064 15 16
1708779813.6207 5966 6079 15 15
1708779813.6286 5983 6097 17 18
1708779813.6376 5999 6115 16 18
1708779813.6442 6016 6131 17 16
1708779813.6523 6034 6149 18 18
1708779813.6625 6048 6165 14 16
1708779813.6691 6063 6181 15 16
1708779813.6771 6080 6199 17 18
1708779813.6861 6097 6217 17 18
1708779813.6927 6114 6234 17 17
1708779813.7018 6132 6252 18 18
1708779813.7109 6149 6269 17 17
1708779813.7165 6166 6287 17 18
1708779813.7250 6183 6305 17 18
1708779813.7342 6199 6320 16 15
1708779813.7402 6215 6335 16 15
1708779813.7485 6232 6351 17 16
1708779813.7585 6247 6366 15 15
1708779813.7650 6263 6384 16 18
1708779813.7727 6282 6402 19 18
1708779813.7821 6299 6418 17 16
1708779813.7890 6313 6432 14 14
1708779813.7972 6331 6449 18 17
1708779813.8055 6349 6466 18 17
1708779813.8131 6365 6482 16 16
1708779813.8202 6381 6498 16 16
1708779813.8300 6397 6513 16 15
1708779813.8362 6414 6528 17 15
1708779813.8461 6432 6546 18 18
1708779813.8541 6447 6562 15 16
1708779813.8606 6464 6578 17 16
1708779813.8683 6482 6595 18 17
1708779813.8777 6497 6610 15 15
1708779813.8849 6512 6625 15 15
1708779813.8925 6531 6642 19 17
1708779813.9017 6549 6658 18 16
1708779813.9082 6565 6673 16 15
1708779813.9171 6582 6689 17 16
1708779813.9259 6597 6705 15 16
1708779813.9331 6615 6723 18 18
1708779813.9407 6635 6741 20 18
1708779813.9496 6652 6756 17 15
1708779813.9572 6666 6770 14 14
1708779813.9649 6682 6787 16 17
1708779813.9738 6701 6806 19 19
1708779813.9810 6720 6823 19 17
1708779813.9886 6740 6839 20 16
1708779813.9975 6755 6854 15 15
1708779814.0051 6769 6872 14 18
1708779814.0131 6788 6890 19 18
1708779814.0219 6808 6907 20 17
1708779814.0289 6825 6922 17 15
1708779814.0364 6840 6938 15 16
1708779814.0455 6855 6954 15 16
1708779814.0532 6873 6969 18 15
1708779814.0603 6893 6987 20 18
1708779814.0704 6908 7005 15 18
1708779814.0770 6920 7020 12 15
1708779814.0845 6937 7036 17 16
1708779814.0940 6957 7049 20 13
1708779814.1007 6975 7065 18 16
1708779814.1084 6991 7084 16 19
1708779814.1182 7005 7100 14 16
1708779814.1247 7021 7115 16 15
1708779814.1332 7042 7132 21 17
1708779814.1422 7060 7147 18 15
1708779814.1487 7076 7164 16 17
1708779814.1570 7092 7182 16 18
1708779814.1657 7109 7197 17 15
1708779814.1733 7127 7212 18 15
1708779814.1819 7146 7229 19 17
1708779814.1899 7163 7247 17 18
1708779814.1965 7181 7265 18 18
1708779814.2044 7199 7280 18 15
1708779814.2144 7214 7294 15 14
1708779814.2209 7230 7310 16 16
1708779814.2292 7249 7328 19 18
1708779814.2378 7266 7344 17 16
1708779814.2444 7282 7359 16 15
1708779814.2523 7299 7376 17 17
1708779814.2624 7315 7392 16 16
1708779814.2690 7332 7407 17 15
1708779814.2771 7352 7425 20 18
1708779814.2857 7369 7444 17 19
1708779814.2923 7384 7461 15 17
1708779814.3011 7401 7476 17 15
1708779814.3101 7417 7491 16 15
1708779814.3167 7435 7508 18 17
1708779814.3245 7455 7528 20 20
1708779814.3341 7470 7544 15 16
1708779814.3408 7483 7558 13 14
1708779814.3490 7497 7571 14 13
1708779814.3580 7514 7587 17 16
1708779814.3646 7533 7607 19 20
1708779814.3726 7553 7627 20 20
1708779814.3820 7567 7643 14 16
1708779814.3885 7579 7657 12 14
1708779814.3964 7596 7674 17 17
1708779814.4065 7614 7691 18 17
1708779814.4131 7630 7710 16 19
1708779814.4209 7648 7729 18 19
1708779814.4299 7663 7746 15 17
1708779814.4371 7678 7760 15 14
1708779814.4449 7695 7777 17 17
1708779814.4538 7712 7795 17 18
1708779814.4604 7727 7812 15 17
1708779814.4683 7743 7829 16 17
1708779814.4793 7758 7844 15 15
1708779814.4845 7775 7861 17 17
1708779814.4924 7794 7881 19 20
1708779814.5024 7807 7896 13 15
1708779814.5090 7820 7910 13 14
1708779814.5168 7839 7927 19 17
1708779814.5256 7856 7945 17 18
1708779814.5328 7872 7963 16 18
1708779814.5408 7888 7981 16 18
1708779814.5497 7904 7999 16 18
1708779814.5563 7920 8015 16 16
1708779814.5643 7938 8034 18 19
1708779814.5745 7952 8051 14 17
1708779814.5806 7965 8066 13 15
1708779814.5885 7981 8082 16 16
1708779814.5985 7997 8097 16 15
1708779814.6051 8014 8116 17 19
1708779814.6130 8032 8135 18 19
1708779814.6218 8048 8152 16 17
1708779814.6285 8063 8167 15 15
1708779814.6372 8080 8184 17 17
1708779814.6462 8096 8200 16 16
1708779814.6527 8114 8218 18 18
1708779814.6605 8131 8236 17 18
1708779814.6697 8144 8249 13 13
1708779814.6772 8157 8264 13 15
1708779814.6847 8174 8281 17 17
1708779814.6936 8192 8302 18 21
1708779814.7003 8208 8320 16 18
1708779814.7091 8224 8335 16 15
1708779814.7181 8239 8349 15 14
1708779814.7243 8256 8366 17 17
1708779814.7330 8274 8386 18 20
1708779814.7420 8288 8400 14 14
1708779814.7483 8303 8416 15 16
1708779814.7571 8320 8434 17 18
1708779814.7662 8335 8452 15 18
1708779814.7728 8352 8470 17 18
1708779814.7805 8369 8489 17 19
1708779814.7895 8384 8504 15 15
1708779814.7971 8399 8520 15 16
1708779814.8051 8417 8538 18 18
1708779814.8142 8435 8557 18 19
1708779814.8208 8452 8574 17 17
1708779814.8288 8467 8591 15 17
1708779814.8385 8480 8607 13 16
1708779814.8451 8496 8625 16 18
1708779814.8531 8515 8645 19 20
1708779814.8621 8531 8662 16 17
1708779814.8687 8545 8679 14 17
1708779814.8764 8562 8696 17 17
1708779814.8860 8579 8712 17 16
1708779814.8926 8594 8728 15 16
1708779814.9005 8608 8744 14 16
1708779814.9095 8624 8760 16 16
1708779814.9171 8644 8781 20 21
1708779814.9250 8663 8801 19 20
1708779814.9336 8677 8816 14 15
1708779814.9403 8690 8831 13 15
1708779814.9487 8708 8848 18 17
1708779814.9576 8726 8866 18 18
1708779814.9643 8742 8883 16 17
1708779814.9732 8758 8900 16 17
1708779814.9823 8774 8915 16 15
1708779814.9884 8791 8933 17 18
1708779814.9963 8810 8953 19 20
1708779815.0063 8826 8969 16 16
1708779815.0129 8839 8981 13 12
1708779815.0206 8855 8996 16 15
1708779815.0296 8873 9015 18 19
1708779815.0369 8893 9035 20 20
1708779815.0448 8911 9053 18 18
1708779815.0538 8927 9068 16 15
1708779815.0604 8942 9083 15 15
1708779815.0686 8959 9101 17 18
1708779815.0776 8975 9118 16 17
1708779815.0849 8992 9135 17 17
1708779815.0928 9010 9152 18 17
1708779815.1023 9026 9169 16 17
1708779815.1089 9041 9185 15 16
1708779815.1165 9058 9203 17 18
1708779815.1256 9075 9220 17 17
1708779815.1329 9091 9235 16 15
1708779815.1408 9109 9253 18 18
1708779815.1498 9128 9270 19 17
1708779815.1564 9146 9287 18 17
1708779815.1643 9163 9305 17 18
1708779815.1745 9177 9320 14 15
1708779815.1807 9192 9334 15 14
1708779815.1886 9211 9352 19 18
1708779815.1986 9229 9369 18 17
1708779815.2052 9244 9384 15 15
1708779815.2130 9261 9401 17 17
1708779815.2220 9278 9418 17 17
1708779815.2286 9296 9433 18 15
1708779815.2363 9313 9450 17 17
1708779815.2462 9328 9466 15 16
1708779815.2527 9344 9480 16 14
1708779815.2606 9363 9497 19 17
1708779815.2696 9380 9512 17 15
1708779815.2773 9396 9530 16 18
1708779815.2849 9414 9548 18 18
1708779815.2938 9432 9564 18 16
1708779815.3005 9449 9579 17 15
1708779815.3083 9466 9596 17 17
1708779815.3184 9481 9612 15 16
1708779815.3252 9498 9627 17 15
1708779815.3333 9517 9644 19 17
1708779815.3415 9534 9660 17 16
1708779815.3492 9550 9677 16 17
1708779815.3570 9569 9696 19 19
1708779815.3660 9587 9712 18 16
1708779815.3726 9605 9726 18 14
1708779815.3807 9622 9743 17 17
1708779815.3897 9637 9758 15 15
1708779815.3965 9654 9774 17 16
1708779815.4044 9673 9791 19 17
1708779815.4144 9690 9808 17 17
1708779815.4211 9706 9823 16 15
1708779815.4288 9724 9840 18 17
1708779815.4386 9741 9856 17 16
1708779815.4452 9757 9872 16 16
1708779815.4532 9774 9888 17 16
1708779815.4615 9791 9904 17 16
1708779815.4690 9809 9920 18 16
1708779815.4769 9827 9938 18 18
1708779815.4866 9844 9955 17 17
1708779815.4933 9863 9973 19 18
1708779815.5011 9883 9989 20 16
1708779815.5108 9897 10005 14 16
1708779815.5167 9908 10020 11 15
1708779815.5247 9925 10037 17 17
1708779815.5344 9945 10052 20 15
1708779815.5406 9963 10069 18 17
1708779815.5489 9980 10085 17 16
1708779815.5593 9994 10101 14 16
1708779815.5648 10011 10118 17 17
1708779815.5727 10030 10137 19 19
1708779815.5829 10045 10152 15 15
1708779815.5889 10059 10165 14 13
1708779815.5968 10076 10181 17 16
1708779815.6055 10091 10197 15 16
1708779815.6133 10107 10216 16 19
1708779815.6211 10125 10234 18 18
1708779815.6302 10143 10250 18 16
1708779815.6364 10159 10264 16 14
1708779815.6447 10175 10281 16 17
1708779815.6537 10190 10297 15 16
1708779815.6604 10206 10313 16 16
1708779815.6684 10224 10329 18 16
1708779815.6785 10238 10345 14 16
1708779815.6848 10254 10363 16 18
1708779815.6928 10272 10380 18 17
