% Pose without folding and reset (log_20240224_140330.316/log_pose_abs.txt)
% 1 	Time (sec)
% 2,3 	Position x,y (m)
% 4 	heading (rad)
% 5 	Driven distance (m) - signed
% 6 	Turned angle (rad) - signed
1708779810.6746 0.000 0.000 0.0000 0.000 0.0000
1708779810.6823 0.000 0.000 0.0000 0.000 0.0000
1708779810.6895 0.000 0.000 0.0000 0.000 0.0000
1708779810.6982 0.000 0.000 0.0000 0.000 0.0000
1708779810.7052 0.000 0.000 0.0016 0.000 0.0016
1708779810.7134 0.003 0.000 0.0031 0.003 0.0031
1708779810.7221 0.006 0.000 0.0000 0.006 0.0000
1708779810.7298 0.008 0.000 -0.0062 0.008 -0.0062
1708779810.7377 0.010 -0.000 -0.0047 0.010 -0.0047
1708779810.7453 0.014 -0.000 -0.0031 0.014 -0.0031
1708779810.7534 0.018 -0.000 -0.0031 0.018 -0.0031
1708779810.7615 0.022 -0.000 -0.0031 0.022 -0.0031
1708779810.7692 0.027 -0.000 -0.0031 0.027 -0.0031
1708779810.7773 0.032 -0.000 -0.0047 0.032 -0.0047
1708779810.7859 0.038 -0.000 0.0000 0.038 0.0000
1708779810.7937 0.044 -0.000 0.0016 0.044 0.0016
1708779810.8019 0.051 -0.000 -0.0031 0.051 -0.0031
1708779810.8102 0.057 -0.000 -0.0062 0.057 -0.0062
1708779810.8179 0.063 -0.000 -0.0093 0.063 -0.0093
1708779810.8259 0.070 -0.000 -0.0124 0.070 -0.0124
1708779810.8338 0.076 -0.000 -0.0155 0.076 -0.0155
1708779810.8419 0.083 -0.000 -0.0171 0.083 -0.0171
1708779810.8544 0.089 -0.001 -0.0217 0.089 -0.0217
1708779810.8638 0.096 -0.001 -0.0233 0.096 -0.0233
1708779810.8682 0.103 -0.001 -0.0264 0.103 -0.0264
1708779810.8732 0.110 -0.001 -0.0310 0.110 -0.0310
1708779810.8819 0.115 -0.001 -0.0310 0.115 -0.0310
1708779810.8896 0.118 -0.001 -0.0279 0.118 -0.0279
1708779810.8979 0.124 -0.001 -0.0264 0.124 -0.0264
1708779810.9053 0.132 -0.002 -0.0248 0.132 -0.0248
1708779810.9137 0.139 -0.002 -0.0264 0.139 -0.0264
1708779810.9218 0.145 -0.002 -0.0248 0.145 -0.0248
1708779810.9305 0.150 -0.002 -0.0279 0.151 -0.0279
1708779810.9382 0.156 -0.002 -0.0326 0.156 -0.0326
1708779810.9456 0.162 -0.003 -0.0373 0.162 -0.0373
1708779810.9537 0.169 -0.003 -0.0357 0.169 -0.0357
1708779810.9613 0.176 -0.003 -0.0341 0.176 -0.0341
1708779810.9696 0.183 -0.003 -0.0326 0.183 -0.0326
1708779810.9783 0.189 -0.003 -0.0310 0.189 -0.0310
1708779810.9858 0.196 -0.004 -0.0341 0.196 -0.0341
1708779810.9935 0.203 -0.004 -0.0326 0.203 -0.0326
1708779811.0012 0.210 -0.004 -0.0310 0.210 -0.0310
1708779811.0095 0.216 -0.004 -0.0310 0.216 -0.0310
1708779811.0222 0.221 -0.005 -0.0357 0.221 -0.0357
1708779811.0253 0.228 -0.005 -0.0388 0.228 -0.0388
1708779811.0333 0.235 -0.005 -0.0419 0.235 -0.0419
1708779811.0416 0.241 -0.005 -0.0419 0.241 -0.0419
1708779811.0493 0.246 -0.006 -0.0419 0.246 -0.0419
1708779811.0573 0.252 -0.006 -0.0388 0.252 -0.0388
1708779811.0657 0.259 -0.006 -0.0341 0.259 -0.0341
1708779811.0741 0.265 -0.006 -0.0341 0.265 -0.0341
1708779811.0826 0.271 -0.006 -0.0326 0.271 -0.0326
1708779811.0901 0.277 -0.007 -0.0310 0.277 -0.0310
1708779811.0973 0.283 -0.007 -0.0264 0.283 -0.0264
1708779811.1056 0.289 -0.007 -0.0233 0.289 -0.0233
1708779811.1141 0.295 -0.007 -0.0217 0.295 -0.0217
1708779811.1215 0.301 -0.007 -0.0217 0.301 -0.0217
1708779811.1301 0.308 -0.007 -0.0186 0.308 -0.0186
1708779811.1375 0.314 -0.007 -0.0124 0.314 -0.0124
1708779811.1458 0.320 -0.008 -0.0078 0.320 -0.0078
1708779811.1537 0.325 -0.008 -0.0062 0.326 -0.0062
1708779811.1620 0.332 -0.008 -0.0062 0.332 -0.0062
1708779811.1692 0.338 -0.008 -0.0031 0.338 -0.0031
1708779811.1783 0.344 -0.008 0.0062 0.344 0.0062
1708779811.1860 0.350 -0.008 0.0124 0.350 0.0124
1708779811.1933 0.357 -0.007 0.0140 0.357 0.0140
1708779811.2022 0.363 -0.007 0.0124 0.363 0.0124
1708779811.2097 0.369 -0.007 0.0140 0.369 0.0140
1708779811.2173 0.375 -0.007 0.0202 0.375 0.0202
1708779811.2277 0.381 -0.007 0.0248 0.381 0.0248
1708779811.2357 0.387 -0.007 0.0248 0.387 0.0248
1708779811.2437 0.394 -0.007 0.0295 0.394 0.0295
1708779811.2534 0.401 -0.007 0.0326 0.401 0.0326
1708779811.2600 0.407 -0.006 0.0388 0.407 0.0388
1708779811.2696 0.413 -0.006 0.0466 0.413 0.0466
1708779811.2860 0.419 -0.006 0.0528 0.419 0.0528
1708779811.2907 0.425 -0.005 0.0559 0.425 0.0559
1708779811.2988 0.432 -0.005 0.0590 0.432 0.0590
1708779811.3051 0.440 -0.005 0.0605 0.440 0.0605
1708779811.3094 0.446 -0.004 0.0652 0.446 0.0652
1708779811.3140 0.451 -0.004 0.0714 0.451 0.0714
1708779811.3216 0.455 -0.003 0.0792 0.455 0.0792
1708779811.3306 0.459 -0.003 0.0869 0.459 0.0869
1708779811.3378 0.464 -0.003 0.0885 0.464 0.0885
1708779811.3457 0.471 -0.002 0.0947 0.471 0.0947
1708779811.3540 0.477 -0.002 0.1024 0.477 0.1024
1708779811.3613 0.482 -0.001 0.1087 0.483 0.1087
1708779811.3702 0.488 -0.000 0.1102 0.489 0.1102
1708779811.3781 0.494 0.000 0.1102 0.495 0.1102
1708779811.3862 0.501 0.001 0.1133 0.501 0.1133
1708779811.3942 0.507 0.002 0.1211 0.508 0.1211
1708779811.4016 0.513 0.003 0.1257 0.513 0.1257
1708779811.4099 0.518 0.003 0.1288 0.519 0.1288
1708779811.4179 0.525 0.004 0.1350 0.525 0.1350
1708779811.4253 0.531 0.005 0.1366 0.532 0.1366
1708779811.4336 0.538 0.006 0.1428 0.538 0.1428
1708779811.4420 0.543 0.007 0.1475 0.544 0.1475
1708779811.4497 0.549 0.008 0.1537 0.550 0.1537
1708779811.4573 0.556 0.009 0.1568 0.557 0.1568
1708779811.4658 0.562 0.010 0.1568 0.563 0.1568
1708779811.4734 0.568 0.011 0.1599 0.569 0.1599
1708779811.4815 0.574 0.012 0.1676 0.575 0.1676
1708779811.4896 0.580 0.013 0.1723 0.581 0.1723
1708779811.4972 0.587 0.014 0.1739 0.588 0.1739
1708779811.5052 0.593 0.015 0.1770 0.594 0.1770
1708779811.5133 0.598 0.016 0.1816 0.600 0.1816
1708779811.5221 0.605 0.017 0.1847 0.606 0.1847
1708779811.5303 0.612 0.018 0.1863 0.613 0.1863
1708779811.5373 0.618 0.020 0.1894 0.620 0.1894
1708779811.5456 0.624 0.021 0.1909 0.626 0.1909
1708779811.5541 0.629 0.022 0.1925 0.631 0.1925
1708779811.5622 0.635 0.023 0.1956 0.637 0.1956
1708779811.5696 0.642 0.024 0.1971 0.645 0.1971
1708779811.5780 0.649 0.026 0.1987 0.652 0.1987
1708779811.5853 0.655 0.027 0.2018 0.657 0.2018
1708779811.5938 0.661 0.028 0.2033 0.663 0.2033
1708779811.6024 0.667 0.029 0.2018 0.670 0.2018
1708779811.6102 0.674 0.031 0.2002 0.677 0.2002
1708779811.6172 0.681 0.032 0.2033 0.684 0.2033
1708779811.6255 0.686 0.033 0.2064 0.690 0.2064
1708779811.6339 0.692 0.035 0.2096 0.695 0.2096
1708779811.6421 0.698 0.036 0.2049 0.702 0.2049
1708779811.6493 0.705 0.037 0.2033 0.709 0.2033
1708779811.6580 0.712 0.039 0.2064 0.716 0.2064
1708779811.6661 0.717 0.040 0.2049 0.721 0.2049
1708779811.6732 0.723 0.041 0.2018 0.727 0.2018
1708779811.6812 0.730 0.042 0.2002 0.734 0.2002
1708779811.6893 0.736 0.044 0.1987 0.740 0.1987
1708779811.6975 0.742 0.045 0.1956 0.746 0.1956
1708779811.7062 0.748 0.046 0.1940 0.753 0.1940
1708779811.7133 0.755 0.047 0.1940 0.759 0.1940
1708779811.7214 0.761 0.049 0.1956 0.766 0.1956
1708779811.7307 0.767 0.050 0.1909 0.772 0.1909
1708779811.7377 0.772 0.051 0.1832 0.777 0.1832
1708779811.7459 0.779 0.052 0.1770 0.785 0.1770
1708779811.7535 0.786 0.053 0.1785 0.792 0.1785
1708779811.7618 0.792 0.054 0.1770 0.797 0.1770
1708779811.7698 0.798 0.055 0.1739 0.803 0.1739
1708779811.7775 0.805 0.057 0.1676 0.810 0.1676
1708779811.7857 0.811 0.058 0.1614 0.817 0.1614
1708779811.7932 0.817 0.058 0.1568 0.822 0.1568
1708779811.8020 0.823 0.059 0.1552 0.828 0.1552
1708779811.8101 0.829 0.060 0.1521 0.835 0.1521
1708779811.8180 0.836 0.062 0.1521 0.842 0.1521
1708779811.8257 0.843 0.063 0.1475 0.849 0.1475
1708779811.8333 0.849 0.063 0.1397 0.855 0.1397
1708779811.8415 0.854 0.064 0.1319 0.861 0.1319
1708779811.8492 0.861 0.065 0.1304 0.868 0.1304
1708779811.8573 0.868 0.066 0.1257 0.874 0.1257
1708779811.8653 0.874 0.067 0.1211 0.880 0.1211
1708779811.8741 0.880 0.067 0.1149 0.886 0.1149
1708779811.8814 0.886 0.068 0.1071 0.893 0.1071
1708779811.8896 0.893 0.069 0.1009 0.899 0.1009
1708779811.8973 0.899 0.069 0.1009 0.905 0.1009
1708779811.9052 0.905 0.070 0.0962 0.911 0.0962
1708779811.9133 0.911 0.071 0.0869 0.918 0.0869
1708779811.9220 0.918 0.071 0.0807 0.924 0.0807
1708779811.9297 0.924 0.072 0.0776 0.931 0.0776
1708779811.9379 0.931 0.072 0.0761 0.938 0.0761
1708779811.9456 0.938 0.073 0.0730 0.944 0.0730
1708779811.9535 0.944 0.073 0.0667 0.950 0.0667
1708779811.9616 0.950 0.073 0.0605 0.956 0.0605
1708779811.9693 0.956 0.074 0.0559 0.963 0.0559
1708779811.9774 0.963 0.074 0.0543 0.970 0.0543
1708779811.9862 0.969 0.074 0.0512 0.976 0.0512
1708779811.9936 0.975 0.075 0.0450 0.981 0.0450
1708779812.0018 0.982 0.075 0.0404 0.988 0.0404
1708779812.0100 0.989 0.075 0.0419 0.995 0.0419
1708779812.0176 0.995 0.076 0.0419 1.001 0.0419
1708779812.0257 1.001 0.076 0.0373 1.007 0.0373
1708779812.0334 1.007 0.076 0.0326 1.014 0.0326
1708779812.0419 1.014 0.076 0.0310 1.020 0.0310
1708779812.0500 1.020 0.076 0.0326 1.027 0.0326
1708779812.0582 1.027 0.077 0.0295 1.033 0.0295
1708779812.0658 1.033 0.077 0.0248 1.040 0.0248
1708779812.0740 1.040 0.077 0.0248 1.046 0.0248
1708779812.0821 1.046 0.077 0.0279 1.052 0.0279
1708779812.0895 1.052 0.077 0.0264 1.059 0.0264
1708779812.0977 1.059 0.078 0.0248 1.066 0.0248
1708779812.1059 1.065 0.078 0.0233 1.072 0.0233
1708779812.1136 1.071 0.078 0.0248 1.078 0.0248
1708779812.1217 1.078 0.078 0.0279 1.084 0.0279
1708779812.1304 1.084 0.078 0.0264 1.091 0.0264
1708779812.1381 1.091 0.078 0.0248 1.098 0.0248
1708779812.1462 1.098 0.079 0.0248 1.104 0.0248
1708779812.1533 1.104 0.079 0.0279 1.110 0.0279
1708779812.1622 1.110 0.079 0.0310 1.117 0.0310
1708779812.1693 1.116 0.079 0.0295 1.122 0.0295
1708779812.1772 1.122 0.079 0.0310 1.129 0.0310
1708779812.1856 1.128 0.079 0.0357 1.135 0.0357
1708779812.1938 1.135 0.080 0.0373 1.141 0.0373
1708779812.2020 1.141 0.080 0.0373 1.148 0.0373
1708779812.2097 1.148 0.080 0.0404 1.155 0.0404
1708779812.2178 1.154 0.080 0.0419 1.161 0.0419
1708779812.2257 1.160 0.081 0.0435 1.166 0.0435
1708779812.2340 1.166 0.081 0.0435 1.173 0.0435
1708779812.2421 1.173 0.081 0.0466 1.180 0.0466
1708779812.2492 1.180 0.082 0.0528 1.187 0.0528
1708779812.2579 1.186 0.082 0.0559 1.192 0.0559
1708779812.2658 1.191 0.082 0.0574 1.198 0.0574
1708779812.2740 1.198 0.083 0.0621 1.204 0.0621
1708779812.2812 1.205 0.083 0.0683 1.212 0.0683
1708779812.2893 1.211 0.084 0.0699 1.218 0.0699
1708779812.2974 1.217 0.084 0.0730 1.223 0.0730
1708779812.3161 1.231 0.085 0.0869 1.238 0.0869
1708779812.3235 1.238 0.086 0.0916 1.245 0.0916
1708779812.3318 1.245 0.086 0.0962 1.252 0.0962
1708779812.3405 1.251 0.087 0.0993 1.258 0.0993
1708779812.3481 1.256 0.087 0.1009 1.263 0.1009
1708779812.3558 1.263 0.088 0.1040 1.270 0.1040
1708779812.3642 1.270 0.089 0.1087 1.277 0.1087
1708779812.3718 1.276 0.090 0.1149 1.283 0.1149
1708779812.3798 1.282 0.090 0.1149 1.289 0.1149
1708779812.3885 1.288 0.091 0.1164 1.295 0.1164
1708779812.3962 1.295 0.092 0.1180 1.302 0.1180
1708779812.4039 1.302 0.093 0.1242 1.309 0.1242
1708779812.4124 1.308 0.093 0.1288 1.315 0.1288
1708779812.4200 1.314 0.094 0.1304 1.321 0.1304
1708779812.4277 1.320 0.095 0.1335 1.327 0.1335
1708779812.4360 1.326 0.096 0.1350 1.334 0.1350
1708779812.4447 1.334 0.097 0.1413 1.341 0.1413
1708779812.4521 1.340 0.098 0.1444 1.348 0.1444
1708779812.4619 1.346 0.099 0.1459 1.354 0.1459
1708779812.4684 1.352 0.100 0.1475 1.360 0.1475
1708779812.4771 1.359 0.101 0.1490 1.367 0.1490
1708779812.4858 1.365 0.101 0.1506 1.373 0.1506
1708779812.4922 1.371 0.102 0.1537 1.379 0.1537
1708779812.5007 1.378 0.103 0.1568 1.386 0.1568
1708779812.5095 1.384 0.104 0.1599 1.392 0.1599
1708779812.5170 1.390 0.105 0.1614 1.398 0.1614
1708779812.5247 1.397 0.106 0.1630 1.405 0.1630
1708779812.5330 1.403 0.108 0.1645 1.411 0.1645
1708779812.5405 1.409 0.109 0.1645 1.418 0.1645
1708779812.5491 1.415 0.110 0.1661 1.423 0.1661
1708779812.5583 1.421 0.111 0.1676 1.430 0.1676
1708779812.5649 1.428 0.112 0.1692 1.437 0.1692
1708779812.5727 1.435 0.113 0.1707 1.444 0.1707
1708779812.5811 1.440 0.114 0.1707 1.449 0.1707
1708779812.5884 1.446 0.115 0.1723 1.455 0.1723
1708779812.5962 1.453 0.116 0.1739 1.462 0.1739
1708779812.6049 1.459 0.117 0.1754 1.469 0.1754
1708779812.6124 1.465 0.118 0.1754 1.474 0.1754
1708779812.6201 1.471 0.119 0.1739 1.481 0.1739
1708779812.6289 1.478 0.120 0.1754 1.487 0.1754
1708779812.6369 1.484 0.122 0.1770 1.493 0.1770
1708779812.6447 1.490 0.123 0.1785 1.500 0.1785
1708779812.6535 1.497 0.124 0.1770 1.507 0.1770
1708779812.6611 1.503 0.125 0.1785 1.513 0.1785
1708779812.6688 1.509 0.126 0.1785 1.519 0.1785
1708779812.6784 1.516 0.127 0.1770 1.526 0.1770
1708779812.6845 1.522 0.128 0.1770 1.532 0.1770
1708779812.6922 1.528 0.129 0.1801 1.538 0.1801
1708779812.7011 1.533 0.130 0.1832 1.544 0.1832
1708779812.7087 1.540 0.132 0.1816 1.550 0.1816
1708779812.7170 1.546 0.133 0.1770 1.557 0.1770
1708779812.7257 1.552 0.134 0.1770 1.563 0.1770
1708779812.7328 1.559 0.135 0.1785 1.570 0.1785
1708779812.7405 1.565 0.136 0.1785 1.576 0.1785
1708779812.7492 1.571 0.137 0.1754 1.582 0.1754
1708779812.7568 1.577 0.138 0.1723 1.588 0.1723
1708779812.7645 1.584 0.140 0.1754 1.595 0.1754
1708779812.7732 1.590 0.141 0.1754 1.601 0.1754
1708779812.7803 1.596 0.142 0.1707 1.607 0.1707
1708779812.7890 1.602 0.143 0.1645 1.614 0.1645
1708779812.7978 1.609 0.144 0.1661 1.620 0.1661
1708779812.8042 1.615 0.145 0.1661 1.627 0.1661
1708779812.8128 1.622 0.146 0.1630 1.634 0.1630
1708779812.8215 1.627 0.147 0.1568 1.639 0.1568
1708779812.8291 1.633 0.148 0.1537 1.645 0.1537
1708779812.8364 1.640 0.149 0.1506 1.652 0.1506
1708779812.8452 1.647 0.150 0.1490 1.659 0.1490
1708779812.8527 1.653 0.151 0.1444 1.665 0.1444
1708779812.8602 1.659 0.152 0.1413 1.672 0.1413
1708779812.8689 1.665 0.153 0.1382 1.678 0.1382
1708779812.8771 1.672 0.153 0.1335 1.684 0.1335
1708779812.8843 1.678 0.154 0.1319 1.690 0.1319
1708779812.8933 1.685 0.155 0.1257 1.697 0.1257
1708779812.9009 1.690 0.156 0.1226 1.703 0.1226
1708779812.9083 1.696 0.157 0.1195 1.709 0.1195
1708779812.9172 1.703 0.157 0.1149 1.715 0.1149
1708779812.9247 1.709 0.158 0.1118 1.722 0.1118
1708779812.9331 1.716 0.159 0.1071 1.729 0.1071
1708779812.9418 1.722 0.159 0.1056 1.735 0.1056
1708779812.9481 1.728 0.160 0.1056 1.741 0.1056
1708779812.9570 1.735 0.161 0.1024 1.748 0.1024
1708779812.9658 1.740 0.161 0.0993 1.753 0.0993
1708779812.9723 1.746 0.162 0.0931 1.758 0.0931
1708779812.9807 1.753 0.162 0.0885 1.765 0.0885
1708779812.9894 1.759 0.163 0.0854 1.772 0.0854
1708779812.9968 1.765 0.164 0.0838 1.778 0.0838
1708779813.0045 1.772 0.164 0.0807 1.785 0.0807
1708779813.0135 1.778 0.165 0.0761 1.791 0.0761
1708779813.0211 1.784 0.165 0.0714 1.797 0.0714
1708779813.0289 1.791 0.166 0.0699 1.804 0.0699
1708779813.0380 1.797 0.166 0.0683 1.810 0.0683
1708779813.0446 1.803 0.166 0.0667 1.816 0.0667
1708779813.0525 1.810 0.167 0.0621 1.823 0.0621
1708779813.0614 1.816 0.167 0.0605 1.829 0.0605
1708779813.0691 1.822 0.168 0.0636 1.835 0.0636
1708779813.0768 1.828 0.168 0.0621 1.841 0.0621
1708779813.0851 1.835 0.168 0.0574 1.848 0.0574
1708779813.0926 1.841 0.169 0.0543 1.854 0.0543
1708779813.1005 1.847 0.169 0.0559 1.860 0.0559
1708779813.1095 1.854 0.169 0.0590 1.867 0.0590
1708779813.1171 1.861 0.170 0.0574 1.874 0.0574
1708779813.1249 1.868 0.170 0.0528 1.881 0.0528
1708779813.1332 1.873 0.170 0.0512 1.887 0.0512
1708779813.1401 1.879 0.171 0.0528 1.892 0.0528
1708779813.1490 1.886 0.171 0.0574 1.899 0.0574
1708779813.1580 1.892 0.172 0.0574 1.905 0.0574
1708779813.1645 1.899 0.172 0.0497 1.912 0.0497
1708779813.1721 1.906 0.172 0.0497 1.919 0.0497
1708779813.1817 1.911 0.173 0.0559 1.924 0.0559
1708779813.1884 1.917 0.173 0.0605 1.930 0.0605
1708779813.1963 1.923 0.173 0.0590 1.937 0.0590
1708779813.2052 1.930 0.174 0.0574 1.943 0.0574
1708779813.2128 1.936 0.174 0.0605 1.950 0.0605
1708779813.2205 1.943 0.174 0.0636 1.956 0.0636
1708779813.2297 1.949 0.175 0.0636 1.962 0.0636
1708779813.2371 1.955 0.175 0.0652 1.968 0.0652
1708779813.2449 1.962 0.176 0.0699 1.975 0.0699
1708779813.2538 1.968 0.176 0.0714 1.981 0.0714
1708779813.2604 1.974 0.177 0.0745 1.987 0.0745
1708779813.2681 1.981 0.177 0.0776 1.994 0.0776
1708779813.2770 1.986 0.177 0.0792 2.000 0.0792
1708779813.2843 1.992 0.178 0.0823 2.006 0.0823
1708779813.2921 1.999 0.179 0.0838 2.013 0.0838
1708779813.3011 2.006 0.179 0.0838 2.019 0.0838
1708779813.3089 2.012 0.180 0.0869 2.025 0.0869
1708779813.3167 2.018 0.180 0.0900 2.032 0.0900
1708779813.3255 2.025 0.181 0.0947 2.039 0.0947
1708779813.3328 2.031 0.181 0.0993 2.045 0.0993
1708779813.3407 2.038 0.182 0.0993 2.051 0.0993
1708779813.3495 2.044 0.183 0.1009 2.057 0.1009
1708779813.3571 2.050 0.183 0.1056 2.063 0.1056
1708779813.3650 2.057 0.184 0.1102 2.070 0.1102
1708779813.3739 2.063 0.185 0.1118 2.077 0.1118
1708779813.3808 2.069 0.185 0.1133 2.083 0.1133
1708779813.3884 2.076 0.186 0.1164 2.089 0.1164
1708779813.3983 2.082 0.187 0.1211 2.095 0.1211
1708779813.4049 2.087 0.188 0.1226 2.101 0.1226
1708779813.4128 2.094 0.188 0.1257 2.108 0.1257
1708779813.4218 2.100 0.189 0.1288 2.114 0.1288
1708779813.4284 2.106 0.190 0.1304 2.120 0.1304
1708779813.4368 2.112 0.191 0.1319 2.126 0.1319
1708779813.4455 2.118 0.192 0.1350 2.132 0.1350
1708779813.4531 2.125 0.193 0.1382 2.139 0.1382
1708779813.4610 2.132 0.194 0.1397 2.147 0.1397
1708779813.4698 2.139 0.194 0.1428 2.153 0.1428
1708779813.4764 2.144 0.195 0.1459 2.159 0.1459
1708779813.4849 2.151 0.196 0.1521 2.165 0.1521
1708779813.4944 2.157 0.197 0.1521 2.171 0.1521
1708779813.5012 2.163 0.198 0.1506 2.178 0.1506
1708779813.5086 2.170 0.199 0.1506 2.185 0.1506
1708779813.5177 2.176 0.200 0.1568 2.191 0.1568
1708779813.5243 2.181 0.201 0.1630 2.196 0.1630
1708779813.5330 2.187 0.202 0.1645 2.202 0.1645
1708779813.5416 2.194 0.203 0.1614 2.208 0.1614
1708779813.5485 2.201 0.204 0.1583 2.216 0.1583
1708779813.5564 2.207 0.205 0.1645 2.222 0.1645
1708779813.5656 2.213 0.206 0.1692 2.228 0.1692
1708779813.5722 2.218 0.207 0.1692 2.234 0.1692
1708779813.5808 2.225 0.208 0.1676 2.240 0.1676
1708779813.5899 2.231 0.209 0.1707 2.247 0.1707
1708779813.5967 2.237 0.210 0.1739 2.253 0.1739
1708779813.6048 2.244 0.212 0.1754 2.260 0.1754
1708779813.6140 2.250 0.213 0.1770 2.266 0.1770
1708779813.6207 2.256 0.214 0.1770 2.271 0.1770
1708779813.6286 2.262 0.215 0.1785 2.278 0.1785
1708779813.6376 2.268 0.216 0.1816 2.284 0.1816
1708779813.6442 2.275 0.217 0.1801 2.291 0.1801
1708779813.6523 2.281 0.218 0.1801 2.298 0.1801
1708779813.6625 2.287 0.219 0.1832 2.303 0.1832
1708779813.6691 2.293 0.220 0.1847 2.309 0.1847
1708779813.6771 2.299 0.222 0.1863 2.316 0.1863
1708779813.6861 2.306 0.223 0.1878 2.322 0.1878
1708779813.6927 2.312 0.224 0.1878 2.329 0.1878
1708779813.7018 2.319 0.225 0.1878 2.335 0.1878
1708779813.7109 2.325 0.226 0.1878 2.342 0.1878
1708779813.7165 2.331 0.228 0.1894 2.348 0.1894
1708779813.7250 2.338 0.229 0.1909 2.355 0.1909
1708779813.7342 2.344 0.230 0.1894 2.361 0.1894
1708779813.7402 2.349 0.231 0.1878 2.367 0.1878
1708779813.7485 2.355 0.232 0.1863 2.373 0.1863
1708779813.7585 2.361 0.233 0.1863 2.379 0.1863
1708779813.7650 2.367 0.235 0.1894 2.385 0.1894
1708779813.7727 2.374 0.236 0.1878 2.392 0.1878
1708779813.7821 2.380 0.237 0.1863 2.398 0.1863
1708779813.7890 2.385 0.238 0.1863 2.404 0.1863
1708779813.7972 2.392 0.239 0.1847 2.410 0.1847
1708779813.8055 2.398 0.240 0.1832 2.417 0.1832
1708779813.8131 2.404 0.241 0.1832 2.423 0.1832
1708779813.8202 2.410 0.243 0.1832 2.429 0.1832
1708779813.8300 2.416 0.244 0.1816 2.435 0.1816
1708779813.8362 2.422 0.245 0.1785 2.441 0.1785
1708779813.8461 2.429 0.246 0.1785 2.447 0.1785
1708779813.8541 2.434 0.247 0.1801 2.453 0.1801
1708779813.8606 2.440 0.248 0.1785 2.460 0.1785
1708779813.8683 2.447 0.249 0.1770 2.466 0.1770
1708779813.8777 2.453 0.250 0.1770 2.472 0.1770
1708779813.8849 2.458 0.251 0.1770 2.477 0.1770
1708779813.8925 2.465 0.252 0.1739 2.484 0.1739
1708779813.9017 2.471 0.254 0.1707 2.491 0.1707
1708779813.9082 2.477 0.255 0.1692 2.496 0.1692
1708779813.9171 2.483 0.256 0.1676 2.503 0.1676
1708779813.9259 2.489 0.257 0.1692 2.509 0.1692
1708779813.9331 2.495 0.258 0.1692 2.515 0.1692
1708779813.9407 2.503 0.259 0.1661 2.523 0.1661
