% Pose without folding and reset (log_20240224_120137.924/log_pose_abs.txt)
% 1 	Time (sec)
% 2,3 	Position x,y (m)
% 4 	heading (rad)
% 5 	Driven distance (m) - signed
% 6 	Turned angle (rad) - signed
1708772498.7739 0.000 0.000 0.0000 0.000 0.0000
1708772498.7822 0.000 0.000 0.0000 0.000 0.0000
1708772498.7903 -0.000 -0.000 0.0016 -0.000 0.0016
1708772498.7971 -0.000 -0.000 0.0031 -0.000 0.0031
1708772498.8053 -0.000 -0.000 0.0016 -0.000 0.0016
1708772498.8124 -0.000 -0.000 0.0016 -0.000 0.0016
1708772498.8212 -0.000 -0.000 0.0016 -0.000 0.0016
1708772498.8294 -0.000 -0.000 0.0016 -0.000 0.0016
1708772498.8370 -0.000 -0.000 0.0016 -0.000 0.0016
1708772498.8450 -0.000 -0.000 0.0016 -0.000 0.0016
1708772498.8537 -0.000 -0.000 0.0016 -0.000 0.0016
1708772498.8610 -0.000 -0.000 0.0016 -0.000 0.0016
1708772498.8691 -0.000 -0.000 0.0016 -0.000 0.0016
1708772498.8775 -0.000 -0.000 0.0016 -0.000 0.0016
1708772498.8854 -0.000 -0.000 0.0016 -0.000 0.0016
1708772498.8931 -0.000 -0.000 0.0016 -0.000 0.0016
1708772498.9014 -0.000 -0.000 0.0016 -0.000 0.0016
1708772498.9086 0.002 0.000 0.0047 0.002 0.0047
1708772498.9164 0.003 0.000 0.0062 0.003 0.0062
1708772498.9257 0.004 0.000 0.0047 0.004 0.0047
1708772498.9333 0.006 0.000 0.0031 0.006 0.0031
1708772498.9414 0.008 0.000 0.0031 0.008 0.0031
1708772498.9490 0.010 0.000 0.0047 0.010 0.0047
1708772498.9571 0.012 0.000 0.0078 0.012 0.0078
1708772498.9654 0.013 0.000 0.0078 0.013 0.0078
1708772498.9742 0.016 0.000 0.0062 0.016 0.0062
1708772498.9804 0.019 0.000 0.0078 0.019 0.0078
1708772498.9890 0.022 0.000 0.0093 0.022 0.0093
1708772498.9973 0.025 0.000 0.0124 0.025 0.0124
1708772499.0045 0.028 0.000 0.0124 0.028 0.0124
1708772499.0138 0.031 0.000 0.0140 0.031 0.0140
1708772499.0208 0.034 0.000 0.0186 0.034 0.0186
1708772499.0286 0.037 0.000 0.0202 0.037 0.0202
1708772499.0373 0.041 0.000 0.0202 0.041 0.0202
1708772499.0447 0.044 0.000 0.0233 0.044 0.0233
1708772499.0531 0.047 0.001 0.0295 0.047 0.0295
1708772499.0609 0.050 0.001 0.0326 0.050 0.0326
1708772499.0691 0.054 0.001 0.0357 0.054 0.0357
1708772499.0765 0.057 0.001 0.0373 0.057 0.0373
1708772499.0851 0.061 0.001 0.0388 0.061 0.0388
1708772499.0933 0.064 0.001 0.0435 0.064 0.0435
1708772499.1005 0.067 0.001 0.0481 0.067 0.0481
1708772499.1093 0.071 0.002 0.0497 0.071 0.0497
1708772499.1175 0.074 0.002 0.0497 0.074 0.0497
1708772499.1248 0.077 0.002 0.0528 0.077 0.0528
1708772499.1332 0.080 0.002 0.0559 0.080 0.0559
1708772499.1415 0.084 0.002 0.0574 0.084 0.0574
1708772499.1497 0.087 0.002 0.0543 0.087 0.0543
1708772499.1566 0.091 0.003 0.0543 0.091 0.0543
1708772499.1651 0.094 0.003 0.0574 0.094 0.0574
1708772499.1725 0.097 0.003 0.0590 0.097 0.0590
1708772499.1813 0.100 0.003 0.0621 0.100 0.0621
1708772499.1897 0.103 0.003 0.0636 0.104 0.0636
1708772499.1971 0.107 0.004 0.0621 0.108 0.0621
1708772499.2051 0.110 0.004 0.0605 0.110 0.0605
1708772499.2136 0.113 0.004 0.0621 0.113 0.0621
1708772499.2209 0.116 0.004 0.0652 0.116 0.0652
1708772499.2291 0.119 0.004 0.0652 0.120 0.0652
1708772499.2371 0.123 0.005 0.0621 0.123 0.0621
1708772499.2545 0.126 0.005 0.0605 0.126 0.0605
1708772499.2568 0.128 0.005 0.0605 0.128 0.0605
1708772499.2607 0.131 0.005 0.0636 0.131 0.0636
1708772499.2686 0.133 0.005 0.0636 0.133 0.0636
1708772499.2768 0.135 0.005 0.0621 0.135 0.0621
1708772499.2976 0.138 0.005 0.0590 0.138 0.0590
1708772499.2995 0.141 0.006 0.0543 0.141 0.0543
1708772499.3021 0.145 0.006 0.0528 0.146 0.0528
1708772499.3097 0.149 0.006 0.0543 0.149 0.0543
1708772499.3174 0.149 0.006 0.0559 0.149 0.0559
1708772499.3255 0.149 0.006 0.0543 0.150 0.0543
1708772499.3337 0.152 0.006 0.0512 0.152 0.0512
1708772499.3410 0.156 0.006 0.0466 0.156 0.0466
1708772499.3493 0.159 0.007 0.0466 0.160 0.0466
1708772499.3569 0.161 0.007 0.0466 0.161 0.0466
1708772499.3654 0.163 0.007 0.0450 0.163 0.0450
1708772499.3734 0.166 0.007 0.0404 0.166 0.0404
1708772499.3815 0.169 0.007 0.0388 0.170 0.0388
1708772499.3889 0.173 0.007 0.0404 0.173 0.0404
1708772499.3973 0.175 0.007 0.0404 0.175 0.0404
1708772499.4047 0.177 0.007 0.0341 0.177 0.0341
1708772499.4134 0.180 0.007 0.0310 0.180 0.0310
1708772499.4204 0.183 0.008 0.0310 0.183 0.0310
1708772499.4290 0.187 0.008 0.0341 0.187 0.0341
1708772499.4373 0.189 0.008 0.0326 0.189 0.0326
1708772499.4455 0.191 0.008 0.0279 0.192 0.0279
1708772499.4527 0.195 0.008 0.0248 0.195 0.0248
1708772499.4612 0.198 0.008 0.0264 0.198 0.0264
1708772499.4684 0.201 0.008 0.0264 0.201 0.0264
1708772499.4769 0.203 0.008 0.0233 0.203 0.0233
1708772499.4851 0.207 0.008 0.0202 0.207 0.0202
1708772499.4931 0.210 0.008 0.0217 0.210 0.0217
1708772499.5016 0.213 0.008 0.0217 0.213 0.0217
1708772499.5099 0.216 0.008 0.0202 0.216 0.0202
1708772499.5167 0.219 0.008 0.0171 0.219 0.0171
1708772499.5261 0.222 0.008 0.0171 0.222 0.0171
1708772499.5341 0.225 0.009 0.0186 0.225 0.0186
1708772499.5420 0.228 0.009 0.0171 0.228 0.0171
1708772499.5499 0.231 0.009 0.0155 0.232 0.0155
1708772499.5583 0.235 0.009 0.0140 0.235 0.0140
1708772499.5661 0.238 0.009 0.0140 0.238 0.0140
1708772499.5739 0.241 0.009 0.0155 0.241 0.0155
1708772499.5819 0.244 0.009 0.0155 0.244 0.0155
1708772499.5895 0.248 0.009 0.0140 0.248 0.0140
1708772499.5987 0.251 0.009 0.0124 0.251 0.0124
1708772499.6059 0.254 0.009 0.0109 0.254 0.0109
1708772499.6137 0.257 0.009 0.0109 0.257 0.0109
1708772499.6220 0.261 0.009 0.0109 0.261 0.0109
1708772499.6286 0.264 0.009 0.0124 0.264 0.0124
1708772499.6373 0.267 0.009 0.0124 0.267 0.0124
1708772499.6457 0.270 0.009 0.0140 0.270 0.0140
1708772499.6529 0.273 0.009 0.0124 0.273 0.0124
1708772499.6607 0.276 0.009 0.0109 0.277 0.0109
1708772499.6691 0.280 0.009 0.0140 0.280 0.0140
1708772499.6766 0.284 0.009 0.0140 0.284 0.0140
1708772499.6853 0.287 0.009 0.0140 0.287 0.0140
1708772499.6937 0.290 0.009 0.0140 0.290 0.0140
1708772499.7011 0.292 0.009 0.0155 0.293 0.0155
1708772499.7084 0.296 0.010 0.0140 0.296 0.0140
1708772499.7167 0.300 0.010 0.0155 0.300 0.0155
1708772499.7251 0.302 0.010 0.0155 0.303 0.0155
1708772499.7328 0.305 0.010 0.0155 0.305 0.0155
1708772499.7410 0.308 0.010 0.0155 0.309 0.0155
1708772499.7494 0.312 0.010 0.0155 0.312 0.0155
1708772499.7573 0.315 0.010 0.0171 0.316 0.0171
1708772499.7658 0.318 0.010 0.0186 0.318 0.0186
1708772499.7728 0.321 0.010 0.0202 0.321 0.0202
1708772499.7813 0.325 0.010 0.0186 0.325 0.0186
1708772499.7898 0.328 0.010 0.0171 0.328 0.0171
1708772499.7971 0.331 0.010 0.0171 0.331 0.0171
1708772499.8055 0.334 0.010 0.0217 0.334 0.0217
1708772499.8129 0.337 0.010 0.0248 0.337 0.0248
1708772499.8213 0.340 0.010 0.0233 0.340 0.0233
1708772499.8292 0.343 0.010 0.0217 0.343 0.0217
1708772499.8373 0.347 0.010 0.0233 0.347 0.0233
1708772499.8447 0.350 0.011 0.0264 0.350 0.0264
1708772499.8525 0.352 0.011 0.0279 0.353 0.0279
1708772499.8610 0.355 0.011 0.0279 0.356 0.0279
1708772499.8694 0.359 0.011 0.0264 0.359 0.0264
1708772499.8775 0.363 0.011 0.0295 0.363 0.0295
1708772499.8848 0.366 0.011 0.0310 0.366 0.0310
1708772499.8932 0.369 0.011 0.0326 0.369 0.0326
1708772499.9012 0.371 0.011 0.0341 0.372 0.0341
1708772499.9096 0.375 0.011 0.0326 0.375 0.0326
1708772499.9167 0.378 0.011 0.0341 0.379 0.0341
1708772499.9246 0.382 0.012 0.0373 0.382 0.0373
1708772499.9328 0.385 0.012 0.0404 0.385 0.0404
1708772499.9415 0.387 0.012 0.0404 0.387 0.0404
1708772499.9495 0.391 0.012 0.0404 0.391 0.0404
1708772499.9570 0.395 0.012 0.0435 0.395 0.0435
1708772499.9645 0.398 0.012 0.0466 0.398 0.0466
1708772499.9725 0.401 0.012 0.0481 0.401 0.0481
1708772499.9818 0.403 0.012 0.0497 0.404 0.0497
1708772499.9891 0.407 0.013 0.0512 0.408 0.0512
1708772499.9972 0.411 0.013 0.0543 0.412 0.0543
1708772500.0057 0.414 0.013 0.0559 0.415 0.0559
1708772500.0132 0.417 0.013 0.0574 0.417 0.0574
1708772500.0207 0.419 0.013 0.0574 0.420 0.0574
1708772500.0291 0.423 0.014 0.0605 0.423 0.0605
1708772500.0375 0.427 0.014 0.0621 0.427 0.0621
1708772500.0444 0.430 0.014 0.0652 0.430 0.0652
1708772500.0527 0.433 0.014 0.0667 0.433 0.0667
1708772500.0612 0.435 0.014 0.0667 0.435 0.0667
1708772500.0693 0.439 0.015 0.0667 0.439 0.0667
1708772500.0851 0.446 0.015 0.0683 0.447 0.0683
1708772500.0933 0.449 0.015 0.0714 0.450 0.0714
1708772500.1017 0.452 0.015 0.0730 0.452 0.0730
1708772500.1090 0.455 0.016 0.0699 0.455 0.0699
1708772500.1172 0.458 0.016 0.0699 0.458 0.0699
1708772500.1259 0.462 0.016 0.0730 0.462 0.0730
1708772500.1328 0.465 0.016 0.0714 0.465 0.0714
1708772500.1407 0.468 0.017 0.0714 0.468 0.0714
1708772500.1491 0.471 0.017 0.0699 0.471 0.0699
1708772500.1565 0.474 0.017 0.0699 0.474 0.0699
1708772500.1645 0.477 0.017 0.0699 0.478 0.0699
1708772500.1730 0.481 0.017 0.0699 0.481 0.0699
1708772500.1811 0.483 0.018 0.0683 0.484 0.0683
1708772500.1894 0.486 0.018 0.0652 0.487 0.0652
1708772500.1969 0.490 0.018 0.0621 0.490 0.0621
1708772500.2053 0.493 0.018 0.0636 0.494 0.0636
1708772500.2134 0.497 0.019 0.0667 0.497 0.0667
1708772500.2209 0.499 0.019 0.0652 0.500 0.0652
1708772500.2302 0.502 0.019 0.0590 0.503 0.0590
1708772500.2368 0.506 0.019 0.0543 0.506 0.0543
1708772500.2451 0.509 0.019 0.0559 0.510 0.0559
1708772500.2525 0.512 0.019 0.0590 0.512 0.0590
1708772500.2606 0.515 0.020 0.0559 0.515 0.0559
1708772500.2689 0.518 0.020 0.0512 0.518 0.0512
1708772500.2769 0.521 0.020 0.0481 0.522 0.0481
1708772500.2845 0.525 0.020 0.0512 0.525 0.0512
1708772500.2929 0.528 0.020 0.0528 0.528 0.0528
1708772500.3014 0.531 0.020 0.0497 0.531 0.0497
1708772500.3095 0.534 0.021 0.0419 0.535 0.0419
1708772500.3169 0.538 0.021 0.0388 0.538 0.0388
1708772500.3254 0.541 0.021 0.0419 0.541 0.0419
1708772500.3333 0.544 0.021 0.0450 0.544 0.0450
1708772500.3418 0.547 0.021 0.0404 0.547 0.0404
1708772500.3491 0.550 0.021 0.0357 0.551 0.0357
1708772500.3571 0.554 0.021 0.0341 0.554 0.0341
1708772500.3654 0.556 0.021 0.0357 0.557 0.0357
1708772500.3729 0.559 0.022 0.0373 0.560 0.0373
1708772500.3817 0.563 0.022 0.0357 0.563 0.0357
1708772500.3890 0.567 0.022 0.0295 0.567 0.0295
1708772500.3974 0.570 0.022 0.0264 0.570 0.0264
1708772500.4054 0.572 0.022 0.0279 0.573 0.0279
1708772500.4128 0.575 0.022 0.0295 0.576 0.0295
1708772500.4211 0.579 0.022 0.0279 0.579 0.0279
1708772500.4291 0.582 0.022 0.0264 0.583 0.0264
1708772500.4371 0.585 0.022 0.0233 0.586 0.0233
1708772500.4445 0.588 0.022 0.0202 0.589 0.0202
1708772500.4527 0.591 0.022 0.0202 0.592 0.0202
1708772500.4610 0.595 0.023 0.0202 0.595 0.0202
1708772500.4694 0.598 0.023 0.0186 0.599 0.0186
1708772500.4774 0.601 0.023 0.0186 0.602 0.0186
1708772500.4855 0.604 0.023 0.0171 0.605 0.0171
1708772500.4929 0.607 0.023 0.0155 0.608 0.0155
1708772500.5008 0.611 0.023 0.0155 0.612 0.0155
1708772500.5095 0.614 0.023 0.0155 0.615 0.0155
1708772500.5169 0.617 0.023 0.0155 0.617 0.0155
1708772500.5248 0.620 0.023 0.0140 0.621 0.0140
1708772500.5327 0.624 0.023 0.0109 0.624 0.0109
1708772500.5411 0.627 0.023 0.0109 0.628 0.0109
1708772500.5491 0.630 0.023 0.0109 0.630 0.0109
1708772500.5575 0.633 0.023 0.0078 0.634 0.0078
1708772500.5649 0.637 0.023 0.0062 0.637 0.0062
1708772500.5728 0.640 0.023 0.0062 0.641 0.0062
1708772500.5819 0.643 0.023 0.0062 0.643 0.0062
1708772500.5902 0.645 0.023 0.0062 0.646 0.0062
1708772500.5971 0.649 0.023 0.0031 0.649 0.0031
1708772500.6055 0.652 0.023 0.0031 0.653 0.0031
1708772500.6130 0.656 0.023 0.0031 0.656 0.0031
1708772500.6208 0.658 0.023 0.0047 0.659 0.0047
1708772500.6291 0.661 0.023 0.0031 0.662 0.0031
1708772500.6372 0.665 0.023 -0.0016 0.665 -0.0016
1708772500.6453 0.668 0.023 -0.0016 0.669 -0.0016
1708772500.6528 0.672 0.023 -0.0031 0.672 -0.0031
1708772500.6612 0.674 0.023 0.0000 0.675 0.0000
1708772500.6693 0.677 0.023 0.0016 0.678 0.0016
1708772500.6769 0.681 0.023 0.0000 0.681 0.0000
1708772500.6849 0.684 0.023 -0.0031 0.685 -0.0031
1708772500.6934 0.687 0.023 -0.0047 0.688 -0.0047
1708772500.7007 0.690 0.023 -0.0047 0.690 -0.0047
1708772500.7091 0.693 0.023 -0.0031 0.694 -0.0031
1708772500.7173 0.697 0.023 -0.0016 0.697 -0.0016
1708772500.7258 0.700 0.023 -0.0031 0.701 -0.0031
1708772500.7328 0.704 0.023 -0.0062 0.704 -0.0062
1708772500.7407 0.706 0.023 -0.0062 0.707 -0.0062
1708772500.7490 0.709 0.023 -0.0016 0.710 -0.0016
1708772500.7574 0.713 0.023 0.0000 0.713 0.0000
1708772500.7654 0.716 0.023 -0.0047 0.717 -0.0047
1708772500.7735 0.719 0.023 -0.0078 0.720 -0.0078
1708772500.7805 0.722 0.023 -0.0062 0.723 -0.0062
1708772500.7894 0.725 0.023 -0.0047 0.726 -0.0047
1708772500.7968 0.729 0.023 -0.0031 0.729 -0.0031
1708772500.8051 0.732 0.023 -0.0062 0.733 -0.0062
1708772500.8133 0.735 0.023 -0.0078 0.736 -0.0078
1708772500.8210 0.738 0.023 -0.0078 0.739 -0.0078
1708772500.8294 0.741 0.023 -0.0031 0.742 -0.0031
1708772500.8372 0.745 0.023 -0.0031 0.745 -0.0031
1708772500.8458 0.748 0.023 -0.0047 0.749 -0.0047
1708772500.8532 0.751 0.023 -0.0093 0.751 -0.0093
1708772500.8611 0.754 0.023 -0.0078 0.755 -0.0078
1708772500.8695 0.757 0.023 -0.0047 0.758 -0.0047
1708772500.8769 0.761 0.023 -0.0031 0.761 -0.0031
1708772500.8845 0.764 0.023 -0.0062 0.764 -0.0062
1708772500.8930 0.767 0.023 -0.0093 0.767 -0.0093
1708772500.9004 0.770 0.023 -0.0062 0.771 -0.0062
1708772500.9093 0.773 0.023 -0.0031 0.774 -0.0031
1708772500.9177 0.776 0.023 -0.0031 0.777 -0.0031
1708772500.9251 0.780 0.023 -0.0078 0.780 -0.0078
1708772500.9329 0.783 0.023 -0.0109 0.784 -0.0109
1708772500.9413 0.787 0.023 -0.0062 0.787 -0.0062
1708772500.9495 0.789 0.023 -0.0016 0.790 -0.0016
1708772500.9574 0.793 0.023 -0.0016 0.793 -0.0016
1708772500.9648 0.796 0.023 -0.0062 0.797 -0.0062
1708772500.9727 0.799 0.023 -0.0078 0.800 -0.0078
1708772500.9813 0.802 0.023 -0.0047 0.803 -0.0047
1708772500.9888 0.806 0.023 0.0000 0.806 0.0000
1708772500.9971 0.809 0.023 0.0016 0.809 0.0016
1708772501.0052 0.812 0.023 -0.0031 0.812 -0.0031
1708772501.0137 0.815 0.023 -0.0109 0.816 -0.0109
1708772501.0209 0.819 0.023 -0.0109 0.819 -0.0109
1708772501.0290 0.822 0.023 -0.0031 0.822 -0.0031
1708772501.0370 0.824 0.023 -0.0016 0.825 -0.0016
1708772501.0455 0.827 0.023 -0.0047 0.827 -0.0047
1708772501.0525 0.831 0.022 -0.0078 0.831 -0.0078
1708772501.0609 0.835 0.022 -0.0062 0.835 -0.0062
1708772501.0695 0.837 0.022 -0.0047 0.838 -0.0047
1708772501.0774 0.840 0.022 -0.0047 0.841 -0.0047
1708772501.0905 0.843 0.022 -0.0031 0.844 -0.0031
1708772501.0925 0.847 0.022 -0.0047 0.848 -0.0047
1708772501.1007 0.851 0.022 -0.0047 0.852 -0.0047
1708772501.1093 0.852 0.022 -0.0047 0.853 -0.0047
1708772501.1169 0.854 0.022 -0.0031 0.854 -0.0031
1708772501.1252 0.856 0.022 -0.0031 0.857 -0.0031
1708772501.1336 0.860 0.022 -0.0047 0.860 -0.0047
1708772501.1411 0.862 0.022 -0.0031 0.863 -0.0031
1708772501.1493 0.865 0.022 -0.0016 0.865 -0.0016
1708772501.1572 0.868 0.022 -0.0016 0.868 -0.0016
1708772501.1647 0.871 0.022 -0.0031 0.871 -0.0031
1708772501.1728 0.873 0.022 -0.0062 0.874 -0.0062
1708772501.1820 0.876 0.022 -0.0047 0.876 -0.0047
1708772501.1885 0.879 0.022 0.0000 0.879 0.0000
1708772501.1967 0.882 0.022 -0.0016 0.882 -0.0016
1708772501.2052 0.885 0.022 -0.0062 0.885 -0.0062
1708772501.2128 0.887 0.022 -0.0062 0.888 -0.0062
1708772501.2208 0.890 0.022 -0.0047 0.890 -0.0047
1708772501.2293 0.893 0.022 -0.0031 0.894 -0.0031
1708772501.2367 0.896 0.022 -0.0047 0.896 -0.0047
1708772501.2448 0.898 0.022 -0.0078 0.899 -0.0078
1708772501.2533 0.901 0.022 -0.0062 0.902 -0.0062
1708772501.2610 0.905 0.022 -0.0047 0.905 -0.0047
1708772501.2690 0.908 0.022 -0.0078 0.908 -0.0078
1708772501.2772 0.910 0.022 -0.0093 0.911 -0.0093
1708772501.2847 0.913 0.022 -0.0093 0.914 -0.0093
1708772501.2927 0.917 0.022 -0.0078 0.918 -0.0078
1708772501.3022 0.920 0.022 -0.0093 0.921 -0.0093
1708772501.3104 0.923 0.022 -0.0109 0.924 -0.0109
1708772501.3174 0.927 0.022 -0.0124 0.927 -0.0124
1708772501.3259 0.930 0.022 -0.0109 0.931 -0.0109
1708772501.3333 0.933 0.022 -0.0093 0.934 -0.0093
1708772501.3413 0.935 0.022 -0.0109 0.936 -0.0109
1708772501.3498 0.939 0.022 -0.0124 0.939 -0.0124
1708772501.3571 0.942 0.022 -0.0155 0.943 -0.0155
1708772501.3650 0.946 0.022 -0.0140 0.947 -0.0140
1708772501.3735 0.949 0.022 -0.0109 0.950 -0.0109
1708772501.3805 0.952 0.022 -0.0109 0.952 -0.0109
1708772501.3884 0.955 0.022 -0.0155 0.955 -0.0155
1708772501.3980 0.958 0.022 -0.0155 0.959 -0.0155
1708772501.4052 0.962 0.022 -0.0124 0.962 -0.0124
1708772501.4134 0.965 0.021 -0.0093 0.966 -0.0093
1708772501.4218 0.968 0.021 -0.0140 0.969 -0.0140
1708772501.4292 0.971 0.021 -0.0186 0.972 -0.0186
1708772501.4368 0.974 0.021 -0.0186 0.975 -0.0186
1708772501.4461 0.978 0.021 -0.0124 0.978 -0.0124
1708772501.4524 0.981 0.021 -0.0109 0.981 -0.0109
1708772501.4607 0.984 0.021 -0.0140 0.985 -0.0140
1708772501.4691 0.987 0.021 -0.0171 0.987 -0.0171
1708772501.4765 0.990 0.021 -0.0155 0.990 -0.0155
1708772501.4852 0.993 0.021 -0.0140 0.994 -0.0140
1708772501.4938 0.997 0.021 -0.0155 0.997 -0.0155
1708772501.5011 1.000 0.021 -0.0155 1.000 -0.0155
1708772501.5092 1.003 0.021 -0.0155 1.003 -0.0155
1708772501.5175 1.006 0.021 -0.0124 1.006 -0.0124
1708772501.5248 1.009 0.021 -0.0140 1.010 -0.0140
1708772501.5334 1.012 0.021 -0.0155 1.013 -0.0155
1708772501.5419 1.015 0.021 -0.0140 1.016 -0.0140
1708772501.5491 1.019 0.021 -0.0124 1.019 -0.0124
1708772501.5572 1.022 0.021 -0.0140 1.022 -0.0140
1708772501.5656 1.025 0.021 -0.0124 1.025 -0.0124
1708772501.5729 1.028 0.021 -0.0124 1.028 -0.0124
1708772501.5813 1.031 0.021 -0.0093 1.032 -0.0093
1708772501.5898 1.034 0.021 -0.0093 1.035 -0.0093
1708772501.5971 1.037 0.020 -0.0124 1.038 -0.0124
1708772501.6052 1.041 0.020 -0.0124 1.041 -0.0124
1708772501.6138 1.044 0.020 -0.0062 1.044 -0.0062
1708772501.6205 1.047 0.020 -0.0016 1.047 -0.0016
1708772501.6285 1.050 0.020 -0.0031 1.050 -0.0031
1708772501.6382 1.053 0.020 -0.0078 1.054 -0.0078
1708772501.6445 1.056 0.020 -0.0062 1.057 -0.0062
1708772501.6526 1.060 0.020 -0.0031 1.060 -0.0031
1708772501.6621 1.062 0.020 0.0000 1.063 0.0000
1708772501.6705 1.065 0.020 -0.0031 1.066 -0.0031
1708772501.6774 1.069 0.020 -0.0031 1.070 -0.0031
1708772501.6854 1.073 0.020 -0.0016 1.074 -0.0016
1708772501.6929 1.076 0.020 0.0016 1.076 0.0016
1708772501.7008 1.078 0.020 0.0031 1.079 0.0031
1708772501.7091 1.081 0.020 0.0062 1.082 0.0062
1708772501.7174 1.085 0.020 0.0062 1.086 0.0062
1708772501.7254 1.089 0.020 0.0047 1.090 0.0047
1708772501.7334 1.092 0.020 0.0047 1.093 0.0047
1708772501.7409 1.094 0.020 0.0078 1.095 0.0078
1708772501.7489 1.097 0.020 0.0140 1.098 0.0140
1708772501.7572 1.101 0.020 0.0155 1.102 0.0155
1708772501.7645 1.105 0.021 0.0124 1.105 0.0124
1708772501.7732 1.107 0.021 0.0124 1.108 0.0124
1708772501.7813 1.110 0.021 0.0202 1.111 0.0202
1708772501.7887 1.113 0.021 0.0264 1.114 0.0264
1708772501.7966 1.117 0.021 0.0248 1.117 0.0248
1708772501.8059 1.120 0.021 0.0248 1.120 0.0248
1708772501.8134 1.123 0.021 0.0279 1.123 0.0279
1708772501.8215 1.126 0.021 0.0341 1.127 0.0341
1708772501.8301 1.130 0.021 0.0373 1.130 0.0373
1708772501.8371 1.133 0.021 0.0373 1.133 0.0373
1708772501.8451 1.136 0.021 0.0404 1.136 0.0404
1708772501.8534 1.139 0.022 0.0450 1.139 0.0450
1708772501.8610 1.142 0.022 0.0497 1.143 0.0497
1708772501.8691 1.146 0.022 0.0528 1.146 0.0528
1708772501.8774 1.148 0.022 0.0528 1.149 0.0528
1708772501.8846 1.151 0.022 0.0574 1.152 0.0574
1708772501.8926 1.155 0.022 0.0636 1.155 0.0636
1708772501.9012 1.158 0.023 0.0667 1.159 0.0667
1708772501.9086 1.161 0.023 0.0667 1.162 0.0667
1708772501.9166 1.165 0.023 0.0714 1.165 0.0714
1708772501.9260 1.168 0.023 0.0807 1.168 0.0807
1708772501.9330 1.171 0.024 0.0838 1.171 0.0838
1708772501.9409 1.174 0.024 0.0838 1.175 0.0838
1708772501.9492 1.177 0.024 0.0869 1.178 0.0869
1708772501.9567 1.180 0.024 0.0916 1.181 0.0916
1708772501.9646 1.183 0.025 0.0978 1.184 0.0978
1708772501.9743 1.187 0.025 0.1009 1.187 0.1009
1708772501.9812 1.190 0.025 0.0993 1.191 0.0993
1708772501.9892 1.193 0.026 0.1024 1.194 0.1024
1708772501.9976 1.196 0.026 0.1071 1.197 0.1071
1708772502.0049 1.199 0.026 0.1118 1.199 0.1118
1708772502.0132 1.202 0.027 0.1180 1.203 0.1180
1708772502.0222 1.205 0.027 0.1180 1.206 0.1180
