% Pose without folding and reset (log_20240219_135438.518/log_pose_abs.txt)
% 1 	Time (sec)
% 2,3 	Position x,y (m)
% 4 	heading (rad)
% 5 	Driven distance (m) - signed
% 6 	Turned angle (rad) - signed
1708347279.4475 0.000 0.000 0.0000 0.000 0.0000
1708347279.4549 0.000 0.000 0.0000 0.000 0.0000
1708347279.4625 0.000 0.000 0.0000 0.000 0.0000
1708347279.4711 0.000 0.000 0.0000 0.000 0.0000
1708347279.4791 0.000 0.000 0.0000 0.000 0.0000
1708347279.4871 0.000 0.000 0.0000 0.000 0.0000
1708347279.4947 0.000 0.000 0.0000 0.000 0.0000
1708347279.5033 0.000 0.000 0.0000 0.000 0.0000
1708347279.5106 0.000 0.000 0.0000 0.000 0.0000
1708347279.5192 0.000 0.000 0.0000 0.000 0.0000
1708347279.5272 0.000 0.000 0.0000 0.000 0.0000
1708347279.5342 0.000 0.000 0.0000 0.000 0.0000
1708347279.5432 0.000 0.000 0.0000 0.000 0.0000
1708347279.5528 0.000 0.000 0.0000 0.000 0.0000
1708347279.5599 0.000 0.000 0.0000 0.000 0.0000
1708347279.5669 0.000 0.000 0.0000 0.000 0.0000
1708347279.5758 0.000 0.000 0.0000 0.000 0.0000
1708347279.5835 0.000 0.000 0.0000 0.000 0.0000
1708347279.5918 0.001 0.000 0.0000 0.001 0.0000
1708347279.5995 0.002 0.000 0.0016 0.002 0.0016
1708347279.6072 0.003 0.000 -0.0000 0.003 -0.0000
1708347279.6162 0.004 0.000 0.0016 0.004 0.0016
1708347279.6237 0.004 0.000 0.0016 0.004 0.0016
1708347279.6324 0.005 0.000 0.0016 0.005 0.0016
1708347279.6395 0.007 0.000 0.0016 0.007 0.0016
1708347279.6473 0.008 0.000 0.0016 0.008 0.0016
1708347279.6553 0.010 0.000 0.0016 0.010 0.0016
1708347279.6629 0.012 0.000 0.0016 0.012 0.0016
1708347279.6714 0.014 0.000 -0.0000 0.014 -0.0000
1708347279.6790 0.016 0.000 0.0016 0.016 0.0016
1708347279.6877 0.018 0.000 0.0016 0.018 0.0016
1708347279.6974 0.020 0.000 0.0016 0.020 0.0016
1708347279.7032 0.023 0.000 0.0016 0.023 0.0016
1708347279.7111 0.025 0.000 0.0016 0.025 0.0016
1708347279.7195 0.027 0.000 0.0016 0.027 0.0016
1708347279.7272 0.029 0.000 0.0016 0.029 0.0016
1708347279.7351 0.032 0.000 0.0031 0.032 0.0031
1708347279.7433 0.035 0.000 0.0016 0.035 0.0016
1708347279.7511 0.038 0.000 0.0016 0.038 0.0016
1708347279.7589 0.039 0.000 0.0016 0.039 0.0016
1708347279.7676 0.042 0.000 0.0016 0.042 0.0016
1708347279.7753 0.045 0.000 0.0016 0.045 0.0016
1708347279.7834 0.048 0.000 0.0000 0.048 0.0000
1708347279.7914 0.050 0.000 0.0016 0.050 0.0016
1708347279.8055 0.052 0.000 0.0016 0.052 0.0016
1708347279.8118 0.055 0.000 0.0016 0.055 0.0016
1708347279.8182 0.057 0.000 0.0000 0.057 0.0000
1708347279.8233 0.061 0.000 -0.0016 0.061 -0.0016
1708347279.8339 0.063 0.000 0.0000 0.063 0.0000
1708347279.8517 0.064 0.000 0.0016 0.064 0.0016
1708347279.8531 0.064 0.000 0.0016 0.064 0.0016
1708347279.8610 0.066 0.000 0.0031 0.066 0.0031
1708347279.8697 0.070 0.000 0.0016 0.070 0.0016
1708347279.8730 0.072 0.000 0.0000 0.072 0.0000
1708347279.8878 0.074 0.000 0.0000 0.074 0.0000
1708347279.8906 0.074 0.000 0.0016 0.074 0.0016
1708347279.8965 0.074 0.000 0.0031 0.074 0.0031
1708347279.9053 0.076 0.000 0.0016 0.076 0.0016
1708347279.9141 0.079 0.000 -0.0016 0.079 -0.0016
1708347279.9200 0.083 0.000 -0.0016 0.083 -0.0016
1708347279.9302 0.085 0.000 0.0016 0.085 0.0016
1708347279.9355 0.085 0.000 0.0031 0.085 0.0031
1708347279.9433 0.087 0.000 0.0031 0.087 0.0031
1708347279.9527 0.089 0.000 0.0031 0.089 0.0031
1708347279.9620 0.093 0.000 0.0016 0.093 0.0016
1708347279.9680 0.095 0.000 0.0031 0.095 0.0031
1708347279.9753 0.097 0.000 0.0047 0.097 0.0047
1708347279.9872 0.099 0.000 0.0047 0.099 0.0047
1708347279.9908 0.101 0.000 0.0016 0.101 0.0016
1708347279.9996 0.103 0.000 0.0000 0.103 0.0000
1708347280.0075 0.104 0.000 0.0031 0.104 0.0031
1708347280.0157 0.106 0.000 0.0062 0.106 0.0062
1708347280.0234 0.109 0.000 0.0078 0.109 0.0078
1708347280.0315 0.112 0.000 0.0047 0.112 0.0047
1708347280.0396 0.114 0.000 0.0031 0.114 0.0031
1708347280.0469 0.116 0.000 0.0047 0.116 0.0047
1708347280.0575 0.118 0.000 0.0062 0.118 0.0062
1708347280.0649 0.121 0.000 0.0047 0.121 0.0047
1708347280.0718 0.124 0.000 0.0047 0.124 0.0047
1708347280.0802 0.125 0.000 0.0047 0.125 0.0047
1708347280.0877 0.126 0.000 0.0047 0.126 0.0047
1708347280.0957 0.128 0.000 0.0031 0.128 0.0031
1708347280.1054 0.131 0.000 0.0016 0.131 0.0016
1708347280.1112 0.134 0.000 0.0031 0.134 0.0031
1708347280.1192 0.137 0.000 0.0062 0.137 0.0062
1708347280.1274 0.138 0.000 0.0062 0.138 0.0062
1708347280.1359 0.140 0.000 0.0016 0.140 0.0016
1708347280.1429 0.143 0.000 0.0000 0.143 0.0000
1708347280.1512 0.146 0.000 0.0016 0.146 0.0016
1708347280.1591 0.148 0.000 0.0031 0.148 0.0031
1708347280.1674 0.150 0.000 0.0062 0.150 0.0062
1708347280.1755 0.152 0.000 0.0031 0.152 0.0031
1708347280.1831 0.155 0.000 -0.0016 0.155 -0.0016
1708347280.1910 0.157 0.000 0.0000 0.157 0.0000
1708347280.1990 0.160 0.000 0.0031 0.160 0.0031
1708347280.2076 0.162 0.000 0.0031 0.162 0.0031
1708347280.2155 0.164 0.000 -0.0016 0.164 -0.0016
1708347280.2240 0.167 0.000 -0.0031 0.167 -0.0031
1708347280.2317 0.169 0.000 0.0000 0.169 0.0000
1708347280.2398 0.171 0.000 -0.0016 0.171 -0.0016
1708347280.2480 0.173 0.000 -0.0047 0.173 -0.0047
1708347280.2553 0.176 0.000 -0.0062 0.176 -0.0062
1708347280.2632 0.179 0.000 -0.0047 0.179 -0.0047
1708347280.2722 0.181 0.000 -0.0016 0.181 -0.0016
1708347280.2792 0.183 0.000 0.0000 0.183 0.0000
1708347280.2874 0.185 0.000 0.0000 0.185 0.0000
1708347280.2957 0.188 0.000 -0.0031 0.188 -0.0031
1708347280.3031 0.191 0.000 -0.0016 0.191 -0.0016
1708347280.3111 0.193 0.000 -0.0016 0.193 -0.0016
1708347280.3198 0.195 0.000 0.0000 0.195 0.0000
1708347280.3275 0.197 0.000 0.0000 0.197 0.0000
1708347280.3349 0.200 0.000 -0.0016 0.200 -0.0016
1708347280.3438 0.203 0.000 -0.0016 0.203 -0.0016
1708347280.3508 0.205 0.000 -0.0016 0.205 -0.0016
1708347280.3599 0.207 0.000 -0.0016 0.207 -0.0016
1708347280.3677 0.209 0.000 0.0000 0.209 0.0000
1708347280.3756 0.212 0.000 0.0000 0.212 0.0000
1708347280.3835 0.215 0.000 -0.0016 0.215 -0.0016
1708347280.3916 0.217 0.000 -0.0031 0.217 -0.0031
1708347280.3993 0.218 0.000 -0.0031 0.218 -0.0031
1708347280.4071 0.221 0.000 0.0016 0.221 0.0016
1708347280.4152 0.224 0.000 0.0016 0.224 0.0016
1708347280.4231 0.226 0.000 -0.0031 0.226 -0.0031
1708347280.4310 0.228 0.000 -0.0047 0.228 -0.0047
1708347280.4397 0.230 0.000 0.0000 0.230 0.0000
1708347280.4474 0.233 0.000 0.0047 0.233 0.0047
1708347280.4549 0.236 0.000 0.0031 0.236 0.0031
1708347280.4639 0.238 0.000 -0.0016 0.238 -0.0016
1708347280.4716 0.240 0.000 -0.0031 0.240 -0.0031
1708347280.4796 0.242 0.000 -0.0016 0.242 -0.0016
1708347280.4902 0.246 0.000 0.0000 0.246 0.0000
1708347280.4955 0.249 0.000 0.0000 0.249 0.0000
1708347280.5030 0.251 0.000 -0.0016 0.251 -0.0016
1708347280.5111 0.252 0.000 -0.0016 0.252 -0.0016
1708347280.5199 0.254 0.000 -0.0016 0.254 -0.0016
1708347280.5277 0.257 0.000 0.0000 0.257 0.0000
1708347280.5357 0.260 0.000 0.0000 0.260 0.0000
1708347280.5437 0.263 0.000 0.0000 0.263 0.0000
1708347280.5517 0.264 0.000 -0.0016 0.264 -0.0016
1708347280.5595 0.266 0.000 0.0000 0.266 0.0000
1708347280.5673 0.269 0.000 0.0016 0.269 0.0016
1708347280.5757 0.272 0.000 0.0000 0.272 0.0000
1708347280.5840 0.274 0.000 -0.0016 0.274 -0.0016
1708347280.5912 0.276 0.000 0.0000 0.276 0.0000
1708347280.5994 0.278 0.000 0.0016 0.278 0.0016
1708347280.6079 0.281 0.000 0.0000 0.281 0.0000
1708347280.6158 0.283 0.000 -0.0016 0.283 -0.0016
1708347280.6228 0.286 0.000 -0.0016 0.286 -0.0016
1708347280.6329 0.287 0.000 0.0000 0.287 0.0000
1708347280.6396 0.289 0.000 0.0062 0.289 0.0062
1708347280.6476 0.292 0.000 0.0078 0.292 0.0078
1708347280.6552 0.295 0.000 0.0047 0.295 0.0047
1708347280.6630 0.297 0.000 0.0047 0.297 0.0047
1708347280.6714 0.299 0.000 0.0109 0.299 0.0109
1708347280.6792 0.301 0.000 0.0186 0.301 0.0186
1708347280.6870 0.304 0.000 0.0186 0.304 0.0186
1708347280.6950 0.306 0.000 0.0186 0.306 0.0186
1708347280.7037 0.309 0.000 0.0233 0.309 0.0233
1708347280.7115 0.311 0.001 0.0341 0.311 0.0341
1708347280.7197 0.313 0.001 0.0419 0.313 0.0419
1708347280.7274 0.316 0.001 0.0450 0.316 0.0450
1708347280.7350 0.319 0.001 0.0481 0.319 0.0481
1708347280.7429 0.321 0.001 0.0590 0.321 0.0590
1708347280.7522 0.323 0.001 0.0714 0.323 0.0714
1708347280.7595 0.325 0.001 0.0792 0.325 0.0792
1708347280.7672 0.328 0.002 0.0869 0.328 0.0869
1708347280.7752 0.330 0.002 0.0962 0.330 0.0962
1708347280.7837 0.333 0.002 0.1087 0.333 0.1087
1708347280.7938 0.335 0.002 0.1226 0.335 0.1226
1708347280.7999 0.337 0.003 0.1366 0.338 0.1366
1708347280.8072 0.340 0.003 0.1475 0.340 0.1475
1708347280.8149 0.342 0.003 0.1583 0.342 0.1583
1708347280.8238 0.344 0.004 0.1723 0.344 0.1723
1708347280.8314 0.346 0.004 0.1894 0.347 0.1894
1708347280.8393 0.349 0.005 0.2049 0.349 0.2049
1708347280.8472 0.351 0.005 0.2127 0.352 0.2127
1708347280.8556 0.354 0.006 0.2220 0.354 0.2220
1708347280.8634 0.356 0.006 0.2390 0.356 0.2390
1708347280.8713 0.358 0.007 0.2577 0.359 0.2577
1708347280.8791 0.361 0.007 0.2670 0.361 0.2670
1708347280.8869 0.363 0.008 0.2763 0.364 0.2763
1708347280.8977 0.365 0.009 0.2887 0.366 0.2887
1708347280.9029 0.367 0.009 0.3058 0.368 0.3058
1708347280.9108 0.370 0.010 0.3213 0.371 0.3213
1708347280.9198 0.372 0.011 0.3260 0.373 0.3260
1708347280.9276 0.374 0.011 0.3291 0.375 0.3291
1708347280.9352 0.376 0.012 0.3430 0.378 0.3430
1708347280.9432 0.379 0.013 0.3617 0.380 0.3617
1708347280.9517 0.381 0.014 0.3710 0.383 0.3710
1708347280.9592 0.383 0.015 0.3756 0.385 0.3756
1708347280.9671 0.385 0.016 0.3834 0.387 0.3834
1708347280.9759 0.387 0.017 0.3958 0.389 0.3958
1708347280.9828 0.389 0.017 0.4082 0.392 0.4082
1708347280.9927 0.392 0.018 0.4129 0.394 0.4129
1708347280.9993 0.394 0.019 0.4145 0.396 0.4145
1708347281.0069 0.396 0.020 0.4222 0.399 0.4222
1708347281.0159 0.398 0.021 0.4362 0.401 0.4362
1708347281.0237 0.400 0.022 0.4424 0.403 0.4424
1708347281.0316 0.402 0.023 0.4470 0.406 0.4470
1708347281.0393 0.404 0.024 0.4502 0.408 0.4502
1708347281.0473 0.406 0.025 0.4595 0.410 0.4595
1708347281.0566 0.409 0.026 0.4703 0.413 0.4703
1708347281.0637 0.411 0.027 0.4750 0.415 0.4750
1708347281.0714 0.413 0.029 0.4750 0.418 0.4750
1708347281.0793 0.415 0.030 0.4781 0.420 0.4781
1708347281.0870 0.417 0.031 0.4890 0.422 0.4890
1708347281.0950 0.419 0.032 0.4983 0.425 0.4983
1708347281.1037 0.421 0.033 0.5014 0.427 0.5014
1708347281.1117 0.423 0.034 0.4998 0.430 0.4998
1708347281.1196 0.425 0.035 0.5060 0.432 0.5060
1708347281.1273 0.427 0.036 0.5153 0.434 0.5153
1708347281.1355 0.430 0.038 0.5185 0.437 0.5185
1708347281.1432 0.432 0.039 0.5216 0.439 0.5216
1708347281.1510 0.434 0.040 0.5262 0.442 0.5262
1708347281.1596 0.435 0.041 0.5340 0.444 0.5340
1708347281.1675 0.438 0.042 0.5386 0.446 0.5386
1708347281.1756 0.440 0.044 0.5417 0.449 0.5417
1708347281.1837 0.442 0.045 0.5448 0.451 0.5448
1708347281.1914 0.444 0.046 0.5526 0.453 0.5526
1708347281.1993 0.446 0.047 0.5588 0.456 0.5588
1708347281.2079 0.448 0.049 0.5588 0.458 0.5588
1708347281.2155 0.450 0.050 0.5604 0.460 0.5604
1708347281.2234 0.452 0.051 0.5681 0.463 0.5681
1708347281.2313 0.454 0.053 0.5759 0.465 0.5759
1708347281.2390 0.456 0.054 0.5790 0.468 0.5790
1708347281.2469 0.458 0.055 0.5805 0.470 0.5805
1708347281.2554 0.460 0.057 0.5836 0.473 0.5836
1708347281.2629 0.462 0.058 0.5914 0.475 0.5914
1708347281.2709 0.464 0.059 0.5992 0.478 0.5992
1708347281.2799 0.466 0.060 0.6007 0.480 0.6007
1708347281.2876 0.468 0.062 0.6007 0.482 0.6007
1708347281.2954 0.470 0.063 0.6054 0.485 0.6054
1708347281.3039 0.472 0.065 0.6131 0.487 0.6131
1708347281.3140 0.474 0.066 0.6225 0.489 0.6225
1708347281.3194 0.476 0.067 0.6256 0.492 0.6256
1708347281.3276 0.478 0.069 0.6287 0.494 0.6287
1708347281.3353 0.480 0.070 0.6333 0.496 0.6333
1708347281.3432 0.481 0.071 0.6380 0.498 0.6380
1708347281.3521 0.483 0.073 0.6426 0.501 0.6426
1708347281.3595 0.486 0.075 0.6457 0.504 0.6457
1708347281.3673 0.488 0.076 0.6504 0.507 0.6504
1708347281.3753 0.489 0.078 0.6535 0.509 0.6535
1708347281.3829 0.491 0.078 0.6566 0.510 0.6566
1708347281.3909 0.493 0.080 0.6613 0.513 0.6613
1708347281.4000 0.495 0.082 0.6659 0.515 0.6659
1708347281.4074 0.497 0.083 0.6690 0.518 0.6690
1708347281.4154 0.499 0.085 0.6721 0.520 0.6721
1708347281.4235 0.500 0.086 0.6768 0.522 0.6768
1708347281.4312 0.502 0.087 0.6799 0.525 0.6799
1708347281.4389 0.504 0.089 0.6814 0.528 0.6814
1708347281.4478 0.506 0.091 0.6845 0.530 0.6845
1708347281.4550 0.508 0.092 0.6861 0.532 0.6861
1708347281.4631 0.509 0.093 0.6876 0.534 0.6876
1708347281.4713 0.511 0.095 0.6908 0.537 0.6908
1708347281.4791 0.513 0.097 0.6939 0.540 0.6939
1708347281.4872 0.515 0.098 0.6970 0.542 0.6970
1708347281.4951 0.517 0.100 0.6939 0.544 0.6939
1708347281.5037 0.519 0.101 0.6923 0.546 0.6923
1708347281.5117 0.521 0.103 0.6954 0.549 0.6954
1708347281.5198 0.523 0.105 0.7001 0.552 0.7001
1708347281.5275 0.525 0.106 0.7001 0.554 0.7001
1708347281.5349 0.526 0.108 0.6985 0.556 0.6985
1708347281.5434 0.528 0.109 0.6985 0.558 0.6985
1708347281.5511 0.529 0.110 0.7001 0.560 0.7001
1708347281.5599 0.532 0.112 0.7016 0.563 0.7016
1708347281.5678 0.534 0.114 0.6985 0.566 0.6985
1708347281.5754 0.536 0.115 0.6985 0.568 0.6985
1708347281.5836 0.537 0.116 0.7001 0.570 0.7001
1708347281.5916 0.538 0.118 0.6985 0.572 0.6985
1708347281.5994 0.541 0.120 0.6970 0.575 0.6970
1708347281.6069 0.543 0.122 0.6985 0.578 0.6985
1708347281.6210 0.545 0.123 0.6985 0.581 0.6985
1708347281.6230 0.546 0.124 0.6985 0.582 0.6985
1708347281.6318 0.547 0.125 0.6985 0.583 0.6985
1708347281.6494 0.548 0.125 0.6970 0.584 0.6970
1708347281.6507 0.549 0.127 0.6954 0.586 0.6954
1708347281.6560 0.552 0.129 0.6939 0.589 0.6939
1708347281.6633 0.553 0.130 0.6954 0.591 0.6954
1708347281.6719 0.553 0.130 0.6954 0.591 0.6954
1708347281.6792 0.554 0.131 0.6954 0.592 0.6954
1708347281.6880 0.555 0.132 0.6923 0.594 0.6923
1708347281.6956 0.557 0.134 0.6908 0.597 0.6908
1708347281.7036 0.559 0.135 0.6923 0.599 0.6923
1708347281.7130 0.560 0.136 0.6939 0.600 0.6939
1708347281.7198 0.561 0.136 0.6908 0.601 0.6908
1708347281.7277 0.562 0.138 0.6892 0.603 0.6892
1708347281.7405 0.564 0.139 0.6892 0.606 0.6892
1708347281.7448 0.566 0.141 0.6892 0.608 0.6892
1708347281.7518 0.567 0.142 0.6877 0.609 0.6876
1708347281.7598 0.568 0.142 0.6845 0.610 0.6845
1708347281.7678 0.569 0.143 0.6814 0.612 0.6814
1708347281.7750 0.571 0.145 0.6783 0.614 0.6783
1708347281.7835 0.573 0.146 0.6783 0.617 0.6783
1708347281.7911 0.574 0.147 0.6768 0.619 0.6768
1708347281.7996 0.576 0.148 0.6721 0.620 0.6721
1708347281.8074 0.577 0.150 0.6675 0.623 0.6675
1708347281.8157 0.579 0.151 0.6675 0.625 0.6675
1708347281.8238 0.581 0.153 0.6675 0.627 0.6675
1708347281.8335 0.583 0.154 0.6613 0.629 0.6613
1708347281.8392 0.584 0.155 0.6551 0.631 0.6551
1708347281.8474 0.586 0.156 0.6519 0.633 0.6519
1708347281.8557 0.587 0.158 0.6535 0.635 0.6535
1708347281.8629 0.590 0.159 0.6566 0.638 0.6566
1708347281.8718 0.592 0.161 0.6535 0.641 0.6535
1708347281.8801 0.593 0.162 0.6442 0.643 0.6442
1708347281.8879 0.595 0.163 0.6442 0.644 0.6442
1708347281.8958 0.597 0.165 0.6457 0.647 0.6457
1708347281.9038 0.599 0.166 0.6473 0.650 0.6473
1708347281.9117 0.601 0.168 0.6426 0.652 0.6426
1708347281.9197 0.602 0.169 0.6380 0.654 0.6380
1708347281.9272 0.604 0.170 0.6395 0.656 0.6395
1708347281.9358 0.606 0.172 0.6426 0.659 0.6426
1708347281.9436 0.608 0.174 0.6426 0.662 0.6426
1708347281.9520 0.610 0.175 0.6380 0.664 0.6380
1708347281.9593 0.612 0.176 0.6333 0.666 0.6333
1708347281.9673 0.614 0.177 0.6349 0.668 0.6349
1708347281.9753 0.616 0.179 0.6380 0.671 0.6380
1708347281.9838 0.618 0.181 0.6364 0.674 0.6364
1708347281.9912 0.620 0.182 0.6318 0.676 0.6318
1708347281.9993 0.622 0.183 0.6318 0.678 0.6318
1708347282.0077 0.624 0.185 0.6349 0.681 0.6349
1708347282.0158 0.626 0.186 0.6349 0.683 0.6349
1708347282.0238 0.627 0.188 0.6318 0.685 0.6318
1708347282.0315 0.630 0.189 0.6287 0.688 0.6287
1708347282.0395 0.632 0.191 0.6302 0.691 0.6302
1708347282.0475 0.634 0.192 0.6333 0.693 0.6333
1708347282.0550 0.635 0.193 0.6333 0.694 0.6333
1708347282.0631 0.637 0.194 0.6302 0.697 0.6302
1708347282.0722 0.639 0.196 0.6287 0.700 0.6287
1708347282.0799 0.641 0.198 0.6287 0.703 0.6287
1708347282.0869 0.643 0.199 0.6318 0.705 0.6318
1708347282.0960 0.645 0.200 0.6318 0.707 0.6318
1708347282.1035 0.646 0.201 0.6256 0.709 0.6256
1708347282.1114 0.649 0.203 0.6240 0.711 0.6240
1708347282.1192 0.651 0.205 0.6271 0.714 0.6271
1708347282.1275 0.653 0.206 0.6302 0.717 0.6302
1708347282.1356 0.654 0.207 0.6302 0.719 0.6302
1708347282.1437 0.656 0.208 0.6256 0.721 0.6256
1708347282.1516 0.658 0.210 0.6225 0.724 0.6225
1708347282.1597 0.661 0.212 0.6240 0.726 0.6240
1708347282.1675 0.662 0.213 0.6256 0.729 0.6256
1708347282.1752 0.664 0.214 0.6256 0.731 0.6256
1708347282.1839 0.666 0.216 0.6194 0.733 0.6193
1708347282.1946 0.668 0.217 0.6178 0.736 0.6178
1708347282.1989 0.670 0.219 0.6225 0.738 0.6225
1708347282.2104 0.672 0.220 0.6240 0.741 0.6240
1708347282.2154 0.674 0.221 0.6194 0.742 0.6193
1708347282.2231 0.675 0.222 0.6147 0.744 0.6147
1708347282.2312 0.677 0.223 0.6162 0.746 0.6162
1708347282.2393 0.679 0.225 0.6194 0.749 0.6193
1708347282.2470 0.682 0.227 0.6162 0.752 0.6162
1708347282.2556 0.684 0.228 0.6116 0.754 0.6116
1708347282.2637 0.685 0.229 0.6085 0.756 0.6085
1708347282.2715 0.687 0.230 0.6085 0.759 0.6085
1708347282.2796 0.689 0.232 0.6100 0.761 0.6100
1708347282.2875 0.692 0.234 0.6085 0.764 0.6085
1708347282.2952 0.693 0.235 0.6069 0.766 0.6069
1708347282.3037 0.695 0.236 0.6069 0.768 0.6069
1708347282.3126 0.697 0.237 0.6069 0.770 0.6069
1708347282.3192 0.699 0.239 0.6054 0.773 0.6054
1708347282.3276 0.701 0.240 0.6069 0.776 0.6069
1708347282.3355 0.703 0.241 0.6054 0.778 0.6054
1708347282.3434 0.704 0.242 0.6038 0.779 0.6038
1708347282.3515 0.706 0.244 0.6038 0.782 0.6038
1708347282.3593 0.709 0.246 0.6038 0.785 0.6038
1708347282.3671 0.710 0.247 0.6023 0.787 0.6023
1708347282.3757 0.712 0.248 0.6007 0.789 0.6007
1708347282.3837 0.714 0.249 0.6007 0.791 0.6007
1708347282.3913 0.716 0.251 0.6007 0.794 0.6007
1708347282.3992 0.719 0.252 0.6007 0.797 0.6007
1708347282.4078 0.720 0.254 0.5992 0.799 0.5992
1708347282.4156 0.722 0.254 0.5992 0.801 0.5992
1708347282.4236 0.723 0.256 0.6007 0.803 0.6007
1708347282.4326 0.726 0.257 0.6007 0.806 0.6007
1708347282.4390 0.728 0.259 0.6007 0.809 0.6007
1708347282.4475 0.730 0.260 0.5992 0.811 0.5992
1708347282.4552 0.731 0.261 0.6007 0.813 0.6007
1708347282.4630 0.733 0.262 0.6038 0.815 0.6038
1708347282.4710 0.735 0.264 0.6054 0.817 0.6054
1708347282.4801 0.738 0.266 0.6054 0.821 0.6054
1708347282.4869 0.740 0.267 0.6054 0.823 0.6054
1708347282.4950 0.741 0.268 0.6085 0.825 0.6085
1708347282.5039 0.743 0.269 0.6147 0.827 0.6147
1708347282.5111 0.745 0.271 0.6162 0.830 0.6162
1708347282.5196 0.748 0.272 0.6147 0.832 0.6147
1708347282.5280 0.749 0.274 0.6147 0.834 0.6147
1708347282.5352 0.751 0.275 0.6194 0.836 0.6193
1708347282.5438 0.753 0.276 0.6225 0.839 0.6225
1708347282.5532 0.755 0.278 0.6209 0.842 0.6209
1708347282.5594 0.757 0.279 0.6194 0.844 0.6193
1708347282.5686 0.759 0.281 0.6209 0.847 0.6209
1708347282.5763 0.761 0.282 0.6256 0.849 0.6256
1708347282.5840 0.763 0.283 0.6287 0.851 0.6287
1708347282.5926 0.765 0.285 0.6287 0.853 0.6287
1708347282.6010 0.767 0.286 0.6240 0.856 0.6240
1708347282.6079 0.769 0.288 0.6209 0.859 0.6209
1708347282.6159 0.770 0.289 0.6240 0.860 0.6240
1708347282.6244 0.773 0.290 0.6271 0.863 0.6271
1708347282.6311 0.775 0.292 0.6240 0.866 0.6240
1708347282.6394 0.777 0.293 0.6194 0.868 0.6193
1708347282.6479 0.778 0.294 0.6178 0.870 0.6178
1708347282.6562 0.780 0.296 0.6194 0.873 0.6193
1708347282.6632 0.783 0.297 0.6209 0.875 0.6209
1708347282.6726 0.785 0.299 0.6162 0.878 0.6162
1708347282.6797 0.787 0.300 0.6131 0.880 0.6131
1708347282.6881 0.788 0.301 0.6116 0.882 0.6116
1708347282.6965 0.791 0.303 0.6116 0.885 0.6116
1708347282.7055 0.793 0.305 0.6100 0.888 0.6100
1708347282.7114 0.795 0.306 0.6069 0.890 0.6069
1708347282.7206 0.797 0.307 0.6023 0.892 0.6023
1708347282.7272 0.798 0.308 0.5976 0.895 0.5976
