% Pose without folding and reset (log_20240224_114440.328/log_pose_abs.txt)
% 1 	Time (sec)
% 2,3 	Position x,y (m)
% 4 	heading (rad)
% 5 	Driven distance (m) - signed
% 6 	Turned angle (rad) - signed
1708771480.7663 0.000 0.000 0.0000 0.000 0.0000
1708771480.7743 0.000 0.000 0.0000 0.000 0.0000
1708771480.7821 0.000 0.000 0.0000 0.000 0.0000
1708771480.7898 0.000 0.000 0.0000 0.000 0.0000
1708771480.7978 0.000 0.000 0.0000 0.000 0.0000
1708771480.8049 0.000 0.000 0.0000 0.000 0.0000
1708771480.8136 0.000 0.000 0.0000 0.000 0.0000
1708771480.8223 0.000 0.000 0.0000 0.000 0.0000
1708771480.8291 0.000 0.000 0.0000 0.000 0.0000
1708771480.8378 0.000 0.000 0.0000 0.000 0.0000
1708771480.8449 0.000 0.000 0.0000 0.000 0.0000
1708771480.8533 0.000 0.000 0.0000 0.000 0.0000
1708771480.8613 0.000 0.000 0.0000 0.000 0.0000
1708771480.8699 0.000 0.000 0.0000 0.000 0.0000
1708771480.8779 0.000 0.000 0.0000 0.000 0.0000
1708771480.8858 0.000 0.000 0.0000 0.000 0.0000
1708771480.8936 0.000 0.000 0.0016 0.000 0.0016
1708771480.9008 0.001 0.000 0.0109 0.001 0.0109
1708771480.9097 0.005 0.000 0.0093 0.005 0.0093
1708771480.9174 0.008 0.000 0.0047 0.008 0.0047
1708771480.9257 0.010 0.000 0.0000 0.010 0.0000
1708771480.9334 0.012 0.000 0.0000 0.012 0.0000
1708771480.9418 0.014 0.000 0.0016 0.014 0.0016
1708771480.9502 0.018 0.000 0.0000 0.018 0.0000
1708771480.9570 0.022 0.000 0.0000 0.022 0.0000
1708771480.9651 0.025 0.000 -0.0016 0.025 -0.0016
1708771480.9737 0.028 0.000 -0.0031 0.028 -0.0031
1708771480.9818 0.032 0.000 -0.0031 0.032 -0.0031
1708771480.9892 0.037 0.000 -0.0062 0.037 -0.0062
1708771480.9979 0.041 -0.000 -0.0093 0.041 -0.0093
1708771481.0058 0.045 -0.000 -0.0124 0.045 -0.0124
1708771481.0133 0.049 -0.000 -0.0155 0.049 -0.0155
1708771481.0215 0.054 -0.000 -0.0155 0.054 -0.0155
1708771481.0295 0.058 -0.000 -0.0171 0.058 -0.0171
1708771481.0370 0.063 -0.000 -0.0202 0.063 -0.0202
1708771481.0459 0.068 -0.000 -0.0217 0.068 -0.0217
1708771481.0532 0.073 -0.001 -0.0217 0.073 -0.0217
1708771481.0617 0.079 -0.001 -0.0264 0.079 -0.0264
1708771481.0698 0.084 -0.001 -0.0295 0.084 -0.0295
1708771481.0775 0.089 -0.001 -0.0326 0.089 -0.0326
1708771481.0851 0.095 -0.001 -0.0310 0.095 -0.0310
1708771481.0939 0.100 -0.001 -0.0310 0.100 -0.0310
1708771481.1020 0.104 -0.001 -0.0341 0.104 -0.0341
1708771481.1092 0.110 -0.002 -0.0404 0.110 -0.0404
1708771481.1176 0.116 -0.002 -0.0419 0.116 -0.0419
1708771481.1250 0.120 -0.002 -0.0419 0.120 -0.0419
1708771481.1332 0.125 -0.002 -0.0435 0.125 -0.0435
1708771481.1416 0.130 -0.003 -0.0481 0.130 -0.0481
1708771481.1495 0.135 -0.003 -0.0497 0.135 -0.0497
1708771481.1577 0.141 -0.003 -0.0497 0.141 -0.0497
1708771481.1660 0.145 -0.003 -0.0497 0.145 -0.0497
1708771481.1734 0.150 -0.004 -0.0497 0.150 -0.0497
1708771481.1816 0.155 -0.004 -0.0528 0.155 -0.0528
1708771481.1891 0.160 -0.004 -0.0543 0.160 -0.0543
1708771481.1980 0.165 -0.004 -0.0543 0.165 -0.0543
1708771481.2135 0.175 -0.005 -0.0528 0.175 -0.0528
1708771481.2217 0.180 -0.005 -0.0543 0.180 -0.0543
1708771481.2309 0.185 -0.005 -0.0574 0.185 -0.0574
1708771481.2375 0.189 -0.006 -0.0590 0.189 -0.0590
1708771481.2457 0.194 -0.006 -0.0559 0.194 -0.0559
1708771481.2534 0.198 -0.006 -0.0543 0.198 -0.0543
1708771481.2620 0.203 -0.006 -0.0543 0.203 -0.0543
1708771481.2700 0.208 -0.007 -0.0559 0.208 -0.0559
1708771481.2786 0.213 -0.007 -0.0574 0.213 -0.0574
1708771481.2858 0.217 -0.007 -0.0543 0.217 -0.0543
1708771481.2939 0.222 -0.007 -0.0512 0.222 -0.0512
1708771481.3014 0.227 -0.008 -0.0528 0.227 -0.0528
1708771481.3092 0.232 -0.008 -0.0512 0.232 -0.0512
1708771481.3170 0.236 -0.008 -0.0481 0.237 -0.0481
1708771481.3255 0.241 -0.008 -0.0435 0.241 -0.0435
1708771481.3339 0.246 -0.009 -0.0419 0.246 -0.0419
1708771481.3417 0.251 -0.009 -0.0419 0.251 -0.0419
1708771481.3499 0.256 -0.009 -0.0404 0.256 -0.0404
1708771481.3571 0.261 -0.009 -0.0373 0.261 -0.0373
1708771481.3658 0.265 -0.009 -0.0341 0.265 -0.0341
1708771481.3736 0.269 -0.010 -0.0341 0.270 -0.0341
1708771481.3810 0.275 -0.010 -0.0341 0.275 -0.0341
1708771481.3895 0.280 -0.010 -0.0295 0.280 -0.0295
1708771481.3979 0.284 -0.010 -0.0233 0.285 -0.0233
1708771481.4051 0.289 -0.010 -0.0217 0.289 -0.0217
1708771481.4132 0.294 -0.010 -0.0217 0.294 -0.0217
1708771481.4226 0.299 -0.010 -0.0202 0.299 -0.0202
1708771481.4298 0.303 -0.010 -0.0140 0.303 -0.0140
1708771481.4380 0.308 -0.010 -0.0124 0.309 -0.0124
1708771481.4456 0.313 -0.011 -0.0140 0.313 -0.0140
1708771481.4534 0.318 -0.011 -0.0140 0.318 -0.0140
1708771481.4631 0.322 -0.011 -0.0093 0.323 -0.0093
1708771481.4693 0.327 -0.011 -0.0016 0.328 -0.0016
1708771481.4776 0.333 -0.011 -0.0016 0.333 -0.0016
1708771481.4856 0.337 -0.011 -0.0047 0.337 -0.0047
1708771481.4932 0.341 -0.011 -0.0016 0.341 -0.0016
1708771481.5019 0.346 -0.011 0.0016 0.346 0.0016
1708771481.5090 0.351 -0.011 0.0016 0.351 0.0016
1708771481.5175 0.356 -0.011 0.0000 0.356 0.0000
1708771481.5256 0.360 -0.011 0.0000 0.361 0.0000
1708771481.5336 0.365 -0.011 0.0062 0.365 0.0062
1708771481.5418 0.370 -0.011 0.0093 0.370 0.0093
1708771481.5500 0.375 -0.011 0.0078 0.376 0.0078
1708771481.5571 0.380 -0.011 0.0062 0.380 0.0062
1708771481.5654 0.384 -0.011 0.0093 0.384 0.0093
1708771481.5734 0.388 -0.010 0.0109 0.389 0.0109
1708771481.5819 0.394 -0.010 0.0109 0.394 0.0109
1708771481.5957 0.399 -0.010 0.0109 0.399 0.0109
1708771481.5987 0.404 -0.010 0.0078 0.405 0.0078
1708771481.6053 0.409 -0.010 0.0078 0.409 0.0078
1708771481.6132 0.411 -0.010 0.0078 0.412 0.0078
1708771481.6219 0.414 -0.010 0.0109 0.415 0.0109
1708771481.6299 0.419 -0.010 0.0109 0.419 0.0109
1708771481.6379 0.424 -0.010 0.0093 0.425 0.0093
1708771481.6453 0.430 -0.010 0.0062 0.430 0.0062
1708771481.6535 0.434 -0.010 0.0078 0.434 0.0078
1708771481.6619 0.437 -0.010 0.0093 0.437 0.0093
1708771481.6692 0.441 -0.010 0.0093 0.442 0.0093
1708771481.6778 0.447 -0.010 0.0062 0.447 0.0062
1708771481.6859 0.451 -0.010 0.0016 0.452 0.0016
1708771481.6932 0.456 -0.010 0.0016 0.456 0.0016
1708771481.7013 0.460 -0.010 0.0047 0.460 0.0047
1708771481.7098 0.464 -0.010 0.0031 0.464 0.0031
1708771481.7172 0.469 -0.010 -0.0016 0.469 -0.0016
1708771481.7258 0.474 -0.010 -0.0016 0.474 -0.0016
1708771481.7331 0.478 -0.010 0.0000 0.478 0.0000
1708771481.7415 0.483 -0.010 -0.0031 0.483 -0.0031
1708771481.7498 0.487 -0.010 -0.0062 0.488 -0.0062
1708771481.7570 0.492 -0.010 -0.0062 0.493 -0.0062
1708771481.7655 0.497 -0.010 -0.0078 0.497 -0.0078
1708771481.7731 0.502 -0.010 -0.0109 0.502 -0.0109
1708771481.7818 0.507 -0.010 -0.0140 0.507 -0.0140
1708771481.7894 0.511 -0.010 -0.0124 0.511 -0.0124
1708771481.7974 0.516 -0.010 -0.0140 0.517 -0.0140
1708771481.8058 0.521 -0.010 -0.0171 0.521 -0.0171
1708771481.8132 0.525 -0.010 -0.0217 0.525 -0.0217
1708771481.8227 0.530 -0.010 -0.0233 0.530 -0.0233
1708771481.8299 0.535 -0.011 -0.0217 0.535 -0.0217
1708771481.8373 0.540 -0.011 -0.0217 0.541 -0.0217
1708771481.8454 0.545 -0.011 -0.0248 0.545 -0.0248
1708771481.8539 0.549 -0.011 -0.0295 0.549 -0.0295
1708771481.8611 0.553 -0.011 -0.0310 0.554 -0.0310
1708771481.8690 0.559 -0.011 -0.0310 0.559 -0.0310
1708771481.8780 0.564 -0.011 -0.0310 0.564 -0.0310
1708771481.8853 0.568 -0.012 -0.0341 0.568 -0.0341
1708771481.8931 0.573 -0.012 -0.0373 0.573 -0.0373
1708771481.9015 0.578 -0.012 -0.0388 0.578 -0.0388
1708771481.9098 0.582 -0.012 -0.0404 0.582 -0.0404
1708771481.9177 0.587 -0.012 -0.0404 0.587 -0.0404
1708771481.9258 0.592 -0.012 -0.0435 0.593 -0.0435
1708771481.9332 0.597 -0.013 -0.0481 0.598 -0.0481
1708771481.9412 0.602 -0.013 -0.0481 0.602 -0.0481
1708771481.9499 0.606 -0.013 -0.0481 0.606 -0.0481
1708771481.9571 0.610 -0.013 -0.0466 0.611 -0.0466
1708771481.9651 0.616 -0.014 -0.0497 0.616 -0.0497
1708771481.9732 0.621 -0.014 -0.0528 0.621 -0.0528
1708771481.9816 0.625 -0.014 -0.0543 0.625 -0.0543
1708771481.9897 0.630 -0.014 -0.0559 0.630 -0.0559
1708771481.9980 0.635 -0.015 -0.0543 0.635 -0.0543
1708771482.0052 0.640 -0.015 -0.0590 0.640 -0.0590
1708771482.0133 0.645 -0.015 -0.0621 0.645 -0.0621
1708771482.0225 0.649 -0.015 -0.0621 0.649 -0.0621
1708771482.0299 0.653 -0.016 -0.0590 0.654 -0.0590
1708771482.0379 0.659 -0.016 -0.0590 0.659 -0.0590
1708771482.0455 0.663 -0.016 -0.0636 0.664 -0.0636
1708771482.0531 0.668 -0.017 -0.0667 0.668 -0.0667
1708771482.0610 0.672 -0.017 -0.0621 0.673 -0.0621
1708771482.0694 0.677 -0.017 -0.0590 0.677 -0.0590
1708771482.0775 0.682 -0.018 -0.0621 0.682 -0.0621
1708771482.0864 0.687 -0.018 -0.0652 0.687 -0.0652
1708771482.0937 0.692 -0.018 -0.0636 0.692 -0.0636
1708771482.1011 0.697 -0.018 -0.0621 0.697 -0.0621
1708771482.1091 0.701 -0.019 -0.0621 0.701 -0.0621
1708771482.1174 0.705 -0.019 -0.0605 0.706 -0.0605
1708771482.1255 0.711 -0.019 -0.0590 0.711 -0.0590
1708771482.1333 0.716 -0.020 -0.0590 0.717 -0.0590
1708771482.1417 0.721 -0.020 -0.0574 0.721 -0.0574
1708771482.1491 0.725 -0.020 -0.0590 0.725 -0.0590
1708771482.1570 0.730 -0.020 -0.0543 0.730 -0.0543
1708771482.1653 0.735 -0.021 -0.0512 0.735 -0.0512
1708771482.1736 0.740 -0.021 -0.0512 0.741 -0.0512
1708771482.1814 0.745 -0.021 -0.0512 0.745 -0.0512
1708771482.1898 0.749 -0.021 -0.0481 0.750 -0.0481
1708771482.1972 0.754 -0.022 -0.0466 0.755 -0.0466
1708771482.2051 0.759 -0.022 -0.0450 0.760 -0.0450
1708771482.2135 0.764 -0.022 -0.0435 0.765 -0.0435
1708771482.2226 0.769 -0.022 -0.0404 0.769 -0.0404
1708771482.2295 0.774 -0.022 -0.0388 0.774 -0.0388
1708771482.2379 0.779 -0.023 -0.0373 0.780 -0.0373
1708771482.2453 0.783 -0.023 -0.0357 0.784 -0.0357
1708771482.2533 0.787 -0.023 -0.0326 0.788 -0.0326
1708771482.2620 0.792 -0.023 -0.0279 0.792 -0.0279
1708771482.2694 0.798 -0.023 -0.0264 0.798 -0.0264
1708771482.2772 0.803 -0.023 -0.0248 0.803 -0.0248
1708771482.2858 0.807 -0.024 -0.0233 0.807 -0.0233
1708771482.2932 0.811 -0.024 -0.0202 0.812 -0.0202
1708771482.3011 0.816 -0.024 -0.0124 0.817 -0.0124
1708771482.3095 0.821 -0.024 -0.0093 0.822 -0.0093
1708771482.3179 0.826 -0.024 -0.0078 0.826 -0.0078
1708771482.3258 0.830 -0.024 -0.0047 0.831 -0.0047
1708771482.3332 0.835 -0.024 0.0016 0.836 0.0016
1708771482.3416 0.841 -0.024 0.0062 0.841 0.0062
1708771482.3497 0.845 -0.024 0.0078 0.845 0.0078
1708771482.3580 0.849 -0.024 0.0078 0.850 0.0078
1708771482.3653 0.854 -0.024 0.0093 0.854 0.0093
1708771482.3730 0.859 -0.024 0.0140 0.859 0.0140
1708771482.3813 0.864 -0.024 0.0171 0.864 0.0171
1708771482.3895 0.868 -0.023 0.0217 0.869 0.0217
1708771482.3975 0.873 -0.023 0.0248 0.874 0.0248
1708771482.4057 0.878 -0.023 0.0248 0.879 0.0248
1708771482.4131 0.883 -0.023 0.0264 0.884 0.0264
1708771482.4227 0.888 -0.023 0.0295 0.888 0.0295
1708771482.4300 0.892 -0.023 0.0310 0.892 0.0310
1708771482.4373 0.897 -0.023 0.0310 0.898 0.0310
1708771482.4462 0.902 -0.023 0.0326 0.902 0.0326
1708771482.4535 0.906 -0.022 0.0326 0.907 0.0326
1708771482.4620 0.911 -0.022 0.0341 0.912 0.0341
1708771482.4699 0.916 -0.022 0.0357 0.917 0.0357
1708771482.4780 0.921 -0.022 0.0341 0.921 0.0341
1708771482.4853 0.926 -0.022 0.0326 0.926 0.0326
1708771482.4939 0.931 -0.022 0.0326 0.931 0.0326
1708771482.5013 0.935 -0.021 0.0326 0.936 0.0326
1708771482.5099 0.940 -0.021 0.0295 0.941 0.0295
1708771482.5179 0.945 -0.021 0.0279 0.946 0.0279
1708771482.5259 0.950 -0.021 0.0264 0.951 0.0264
1708771482.5333 0.955 -0.021 0.0248 0.955 0.0248
1708771482.5413 0.959 -0.021 0.0217 0.960 0.0217
1708771482.5499 0.964 -0.021 0.0202 0.964 0.0202
1708771482.5573 0.969 -0.021 0.0202 0.969 0.0202
1708771482.5652 0.974 -0.020 0.0186 0.975 0.0186
1708771482.5732 0.979 -0.020 0.0171 0.979 0.0171
1708771482.5816 0.983 -0.020 0.0155 0.983 0.0155
1708771482.5895 0.988 -0.020 0.0140 0.988 0.0140
1708771482.5979 0.993 -0.020 0.0124 0.994 0.0124
1708771482.6052 0.998 -0.020 0.0109 0.999 0.0109
1708771482.6133 1.003 -0.020 0.0078 1.003 0.0078
1708771482.6217 1.007 -0.020 0.0031 1.007 0.0031
1708771482.6292 1.012 -0.020 -0.0016 1.013 -0.0016
1708771482.6380 1.017 -0.020 0.0000 1.018 0.0000
1708771482.6453 1.022 -0.020 0.0000 1.022 0.0000
1708771482.6540 1.026 -0.020 -0.0031 1.027 -0.0031
1708771482.6619 1.031 -0.020 -0.0093 1.032 -0.0093
1708771482.6692 1.036 -0.020 -0.0171 1.037 -0.0171
1708771482.6772 1.041 -0.020 -0.0155 1.042 -0.0155
1708771482.6855 1.045 -0.020 -0.0124 1.046 -0.0124
1708771482.6939 1.050 -0.020 -0.0171 1.050 -0.0171
1708771482.7013 1.055 -0.020 -0.0233 1.056 -0.0233
1708771482.7094 1.060 -0.021 -0.0279 1.061 -0.0279
1708771482.7177 1.065 -0.021 -0.0264 1.066 -0.0264
1708771482.7257 1.069 -0.021 -0.0264 1.070 -0.0264
1708771482.7337 1.074 -0.021 -0.0310 1.074 -0.0310
1708771482.7410 1.079 -0.021 -0.0357 1.079 -0.0357
1708771482.7498 1.084 -0.021 -0.0373 1.084 -0.0373
1708771482.7579 1.089 -0.021 -0.0388 1.089 -0.0388
1708771482.7650 1.093 -0.022 -0.0404 1.094 -0.0404
1708771482.7731 1.098 -0.022 -0.0435 1.099 -0.0435
1708771482.7812 1.103 -0.022 -0.0450 1.103 -0.0450
1708771482.7900 1.107 -0.022 -0.0450 1.108 -0.0450
1708771482.7973 1.112 -0.023 -0.0450 1.113 -0.0450
1708771482.8063 1.118 -0.023 -0.0481 1.118 -0.0481
1708771482.8137 1.122 -0.023 -0.0512 1.123 -0.0512
1708771482.8217 1.127 -0.023 -0.0528 1.127 -0.0528
1708771482.8297 1.131 -0.023 -0.0497 1.132 -0.0497
1708771482.8370 1.136 -0.024 -0.0528 1.137 -0.0528
1708771482.8454 1.141 -0.024 -0.0574 1.142 -0.0574
1708771482.8533 1.145 -0.024 -0.0605 1.146 -0.0605
1708771482.8617 1.150 -0.025 -0.0605 1.151 -0.0605
1708771482.8690 1.155 -0.025 -0.0590 1.156 -0.0590
1708771482.8778 1.160 -0.025 -0.0621 1.161 -0.0621
1708771482.8852 1.164 -0.025 -0.0652 1.165 -0.0652
1708771482.8933 1.169 -0.026 -0.0667 1.170 -0.0667
1708771482.9011 1.174 -0.026 -0.0667 1.175 -0.0667
1708771482.9095 1.179 -0.026 -0.0667 1.180 -0.0667
1708771482.9180 1.183 -0.027 -0.0683 1.184 -0.0683
1708771482.9257 1.188 -0.027 -0.0667 1.189 -0.0667
1708771482.9341 1.193 -0.027 -0.0667 1.194 -0.0667
1708771482.9418 1.198 -0.028 -0.0699 1.199 -0.0699
1708771482.9491 1.203 -0.028 -0.0699 1.203 -0.0699
1708771482.9576 1.207 -0.028 -0.0652 1.208 -0.0652
1708771482.9650 1.212 -0.029 -0.0636 1.213 -0.0636
1708771482.9737 1.217 -0.029 -0.0652 1.218 -0.0652
1708771482.9811 1.221 -0.029 -0.0699 1.222 -0.0699
1708771482.9895 1.227 -0.030 -0.0683 1.227 -0.0683
1708771482.9976 1.232 -0.030 -0.0636 1.232 -0.0636
1708771483.0061 1.236 -0.030 -0.0636 1.237 -0.0636
1708771483.0139 1.241 -0.031 -0.0652 1.242 -0.0652
1708771483.0227 1.246 -0.031 -0.0652 1.247 -0.0652
1708771483.0299 1.251 -0.031 -0.0605 1.252 -0.0605
1708771483.0372 1.256 -0.031 -0.0574 1.257 -0.0574
1708771483.0453 1.260 -0.032 -0.0590 1.261 -0.0590
1708771483.0548 1.265 -0.032 -0.0605 1.266 -0.0605
1708771483.0612 1.269 -0.032 -0.0590 1.270 -0.0590
1708771483.0692 1.275 -0.033 -0.0559 1.276 -0.0559
1708771483.0771 1.280 -0.033 -0.0497 1.281 -0.0497
1708771483.0855 1.284 -0.033 -0.0481 1.285 -0.0481
1708771483.0935 1.288 -0.033 -0.0497 1.289 -0.0497
1708771483.1019 1.294 -0.033 -0.0497 1.295 -0.0497
1708771483.1092 1.299 -0.034 -0.0466 1.300 -0.0466
1708771483.1172 1.303 -0.034 -0.0419 1.304 -0.0419
1708771483.1251 1.307 -0.034 -0.0388 1.308 -0.0388
1708771483.1335 1.312 -0.034 -0.0388 1.313 -0.0388
1708771483.1416 1.318 -0.035 -0.0373 1.319 -0.0373
1708771483.1491 1.323 -0.035 -0.0341 1.324 -0.0341
1708771483.1581 1.327 -0.035 -0.0295 1.328 -0.0295
1708771483.1659 1.331 -0.035 -0.0264 1.332 -0.0264
1708771483.1740 1.336 -0.035 -0.0217 1.337 -0.0217
1708771483.1813 1.341 -0.035 -0.0202 1.342 -0.0202
1708771483.1894 1.346 -0.035 -0.0186 1.347 -0.0186
1708771483.1978 1.350 -0.035 -0.0171 1.351 -0.0171
1708771483.2051 1.355 -0.035 -0.0109 1.356 -0.0109
1708771483.2130 1.360 -0.035 -0.0062 1.361 -0.0062
1708771483.2221 1.365 -0.035 -0.0062 1.366 -0.0062
1708771483.2294 1.369 -0.035 -0.0047 1.370 -0.0047
1708771483.2374 1.374 -0.036 0.0016 1.375 0.0016
1708771483.2458 1.380 -0.035 0.0031 1.381 0.0031
1708771483.2532 1.384 -0.035 0.0047 1.385 0.0047
1708771483.2614 1.389 -0.035 0.0062 1.390 0.0062
1708771483.2698 1.393 -0.035 0.0093 1.394 0.0093
1708771483.2780 1.398 -0.035 0.0109 1.399 0.0109
1708771483.2860 1.404 -0.035 0.0124 1.405 0.0124
1708771483.2934 1.409 -0.035 0.0155 1.410 0.0155
1708771483.3021 1.413 -0.035 0.0155 1.414 0.0155
1708771483.3095 1.417 -0.035 0.0171 1.418 0.0171
1708771483.3179 1.422 -0.035 0.0171 1.423 0.0171
1708771483.3250 1.427 -0.035 0.0171 1.428 0.0171
1708771483.3340 1.433 -0.035 0.0171 1.434 0.0171
1708771483.3414 1.437 -0.035 0.0171 1.438 0.0171
1708771483.3497 1.441 -0.035 0.0186 1.442 0.0186
1708771483.3579 1.446 -0.035 0.0171 1.447 0.0171
1708771483.3654 1.452 -0.035 0.0124 1.453 0.0124
1708771483.3736 1.456 -0.034 0.0109 1.457 0.0109
1708771483.3818 1.460 -0.034 0.0140 1.461 0.0140
1708771483.3899 1.465 -0.034 0.0124 1.466 0.0124
1708771483.3972 1.470 -0.034 0.0093 1.471 0.0093
1708771483.4053 1.475 -0.034 0.0047 1.476 0.0047
1708771483.4137 1.480 -0.034 0.0031 1.481 0.0031
1708771483.4219 1.485 -0.034 0.0047 1.486 0.0047
1708771483.4292 1.490 -0.034 0.0031 1.491 0.0031
1708771483.4375 1.494 -0.034 0.0000 1.495 0.0000
1708771483.4460 1.499 -0.034 -0.0016 1.500 -0.0016
1708771483.4540 1.503 -0.034 -0.0047 1.504 -0.0047
1708771483.4614 1.509 -0.034 -0.0078 1.510 -0.0078
1708771483.4700 1.513 -0.034 -0.0078 1.514 -0.0078
1708771483.4771 1.518 -0.034 -0.0093 1.519 -0.0093
1708771483.4853 1.522 -0.034 -0.0124 1.523 -0.0124
1708771483.4938 1.527 -0.034 -0.0171 1.528 -0.0171
1708771483.5019 1.532 -0.035 -0.0217 1.533 -0.0217
1708771483.5092 1.537 -0.035 -0.0217 1.538 -0.0217
1708771483.5177 1.542 -0.035 -0.0217 1.543 -0.0217
1708771483.5266 1.546 -0.035 -0.0233 1.547 -0.0233
1708771483.5340 1.551 -0.035 -0.0264 1.552 -0.0264
1708771483.5415 1.557 -0.035 -0.0326 1.558 -0.0326
1708771483.5496 1.561 -0.035 -0.0310 1.562 -0.0310
1708771483.5580 1.565 -0.035 -0.0310 1.566 -0.0310
1708771483.5660 1.569 -0.036 -0.0357 1.570 -0.0357
1708771483.5739 1.575 -0.036 -0.0388 1.576 -0.0388
1708771483.5813 1.580 -0.036 -0.0404 1.581 -0.0404
1708771483.5898 1.585 -0.036 -0.0404 1.586 -0.0404
1708771483.5979 1.589 -0.036 -0.0404 1.590 -0.0404
1708771483.6054 1.594 -0.037 -0.0435 1.595 -0.0435
1708771483.6141 1.599 -0.037 -0.0466 1.600 -0.0466
1708771483.6222 1.604 -0.037 -0.0466 1.605 -0.0466
1708771483.6297 1.609 -0.037 -0.0481 1.610 -0.0481
1708771483.6372 1.613 -0.037 -0.0512 1.614 -0.0512
1708771483.6455 1.618 -0.038 -0.0543 1.619 -0.0543
1708771483.6539 1.623 -0.038 -0.0543 1.624 -0.0543
1708771483.6615 1.627 -0.038 -0.0512 1.629 -0.0512
1708771483.6696 1.633 -0.038 -0.0543 1.634 -0.0543
1708771483.6776 1.638 -0.039 -0.0605 1.639 -0.0605
1708771483.6851 1.642 -0.039 -0.0621 1.643 -0.0621
1708771483.6933 1.646 -0.039 -0.0590 1.648 -0.0590
1708771483.7017 1.652 -0.040 -0.0574 1.653 -0.0574
1708771483.7092 1.656 -0.040 -0.0605 1.658 -0.0605
1708771483.7171 1.661 -0.040 -0.0667 1.662 -0.0667
1708771483.7252 1.666 -0.040 -0.0667 1.667 -0.0667
1708771483.7336 1.670 -0.041 -0.0636 1.672 -0.0636
1708771483.7416 1.675 -0.041 -0.0621 1.676 -0.0621
1708771483.7501 1.680 -0.041 -0.0652 1.682 -0.0652
1708771483.7573 1.686 -0.042 -0.0683 1.687 -0.0683
1708771483.7652 1.690 -0.042 -0.0667 1.692 -0.0667
1708771483.7732 1.695 -0.042 -0.0652 1.696 -0.0652
1708771483.7817 1.699 -0.043 -0.0652 1.700 -0.0652
1708771483.7897 1.704 -0.043 -0.0652 1.705 -0.0652
1708771483.7980 1.709 -0.043 -0.0652 1.711 -0.0652
1708771483.8053 1.714 -0.044 -0.0636 1.715 -0.0636
1708771483.8132 1.719 -0.044 -0.0605 1.720 -0.0605
1708771483.8225 1.723 -0.044 -0.0605 1.724 -0.0605
1708771483.8300 1.728 -0.044 -0.0605 1.729 -0.0605
1708771483.8372 1.733 -0.045 -0.0590 1.735 -0.0590
1708771483.8455 1.738 -0.045 -0.0590 1.739 -0.0590
1708771483.8540 1.742 -0.045 -0.0574 1.743 -0.0574
1708771483.8619 1.747 -0.046 -0.0528 1.748 -0.0528
1708771483.8693 1.752 -0.046 -0.0528 1.754 -0.0528
1708771483.8773 1.757 -0.046 -0.0512 1.759 -0.0512
1708771483.8861 1.762 -0.046 -0.0497 1.763 -0.0497
1708771483.8933 1.766 -0.047 -0.0466 1.767 -0.0466
1708771483.9017 1.771 -0.047 -0.0404 1.772 -0.0404
1708771483.9098 1.776 -0.047 -0.0404 1.777 -0.0404
