% Encoder logfile
% 1 	Time (sec)
% 2,3 	enc left, right
% 4,5 	encoder change left, right
1708348266.4745 0 0 0 0
1708348266.4820 0 0 0 0
1708348266.4899 0 0 0 0
1708348266.4965 0 0 0 0
1708348266.5048 0 0 0 0
1708348266.5131 0 0 0 0
1708348266.5202 0 0 0 0
1708348266.5294 0 0 0 0
1708348266.5371 0 0 0 0
1708348266.5447 0 0 0 0
1708348266.5523 0 0 0 0
1708348266.5604 0 0 0 0
1708348266.5691 0 0 0 0
1708348266.5784 0 0 0 0
1708348266.5912 0 0 0 0
1708348266.5934 0 0 0 0
1708348266.6011 0 0 0 0
1708348266.6091 0 1 0 1
1708348266.6176 4 3 4 2
1708348266.6249 8 6 4 3
1708348266.6326 12 7 4 1
1708348266.6413 13 9 1 2
1708348266.6491 15 11 2 2
1708348266.6571 19 15 4 4
1708348266.6650 22 18 3 3
1708348266.6731 26 22 4 4
1708348266.6815 31 26 5 4
1708348266.6890 36 32 5 6
1708348266.6976 42 37 6 5
1708348266.7048 48 42 6 5
1708348266.7128 53 48 5 6
1708348266.7220 59 54 6 6
1708348266.7294 66 60 7 6
1708348266.7410 73 67 7 7
1708348266.7472 78 74 5 7
1708348266.7532 84 81 6 7
1708348266.7612 92 87 8 6
1708348266.7699 97 91 5 4
1708348266.7768 102 97 5 6
1708348266.7870 109 106 7 9
1708348266.7937 116 114 7 8
1708348266.8008 125 120 9 6
1708348266.8226 132 125 7 5
1708348266.8382 137 129 5 4
1708348266.8566 141 133 4 4
1708348266.8678 144 138 3 5
1708348266.8741 146 145 2 7
1708348266.8888 151 154 5 9
1708348266.8928 160 164 9 10
1708348266.8969 170 174 10 10
1708348266.8986 180 182 10 8
1708348266.9108 189 190 9 8
1708348266.9133 197 197 8 7
1708348266.9161 206 202 9 5
1708348266.9194 211 205 5 3
1708348266.9212 208 204 -3 -1
1708348266.9229 204 200 -4 -4
1708348266.9332 198 194 -6 -6
1708348266.9399 198 196 0 2
1708348266.9504 204 204 6 8
1708348266.9528 215 214 11 10
1708348266.9630 225 221 10 7
1708348266.9718 226 219 1 -2
1708348266.9774 226 216 0 -3
1708348266.9862 227 217 1 1
1708348266.9927 232 224 5 7
1708348267.0008 240 231 8 7
1708348267.0098 246 235 6 4
1708348267.0170 250 238 4 3
1708348267.0268 255 244 5 6
1708348267.0341 262 251 7 7
1708348267.0416 270 259 8 8
1708348267.0509 277 266 7 7
1708348267.0577 280 270 3 4
1708348267.0668 286 274 6 4
1708348267.0731 293 281 7 7
1708348267.0814 301 289 8 8
1708348267.0895 306 296 5 7
1708348267.0980 312 302 6 6
1708348267.1056 319 308 7 6
1708348267.1126 327 314 8 6
1708348267.1260 333 319 6 5
1708348267.1358 337 324 4 5
1708348267.1383 343 331 6 7
1708348267.1484 350 339 7 8
1708348267.1544 350 339 0 0
1708348267.1615 352 341 2 2
1708348267.1687 360 347 8 6
1708348267.1776 370 355 10 8
1708348267.1849 375 361 5 6
1708348267.1933 378 365 3 4
1708348267.2014 381 372 3 7
1708348267.2104 387 380 6 8
1708348267.2198 394 386 7 6
1708348267.2283 399 392 5 6
1708348267.2391 401 400 2 8
1708348267.2414 402 408 1 8
1708348267.2498 403 415 1 7
1708348267.2567 407 416 4 1
1708348267.2655 412 422 5 6
1708348267.2740 415 435 3 13
1708348267.2819 415 449 0 14
1708348267.2897 417 458 2 9
1708348267.2993 419 465 2 7
1708348267.3056 422 475 3 10
1708348267.3145 424 486 2 11
1708348267.3218 425 494 1 8
1708348267.3336 426 505 1 11
1708348267.3389 427 515 1 10
1708348267.3460 429 526 2 11
1708348267.3593 430 536 1 10
1708348267.3704 433 545 3 9
1708348267.3771 435 555 2 10
1708348267.3814 439 569 4 14
1708348267.3891 443 583 4 14
1708348267.3957 444 591 1 8
1708348267.4009 444 594 0 3
1708348267.4106 446 600 2 6
1708348267.4197 450 610 4 10
1708348267.4248 457 623 7 13
1708348267.4334 461 633 4 10
1708348267.4418 461 638 0 5
1708348267.4494 463 643 2 5
1708348267.4573 468 650 5 7
1708348267.4665 476 658 8 8
1708348267.4735 482 666 6 8
1708348267.4817 487 673 5 7
1708348267.4894 491 678 4 5
1708348267.4971 498 683 7 5
1708348267.5053 505 687 7 4
1708348267.5140 511 692 6 5
1708348267.5206 518 698 7 6
1708348267.5288 525 703 7 5
1708348267.5405 533 706 8 3
1708348267.5455 541 709 8 3
1708348267.5526 550 712 9 3
1708348267.5624 556 715 6 3
1708348267.5702 565 718 9 3
1708348267.5768 576 720 11 2
1708348267.5861 586 722 10 2
1708348267.5933 593 724 7 2
1708348267.6013 603 726 10 2
1708348267.6102 615 728 12 2
1708348267.6176 625 729 10 1
1708348267.6324 635 731 10 2
1708348267.6355 646 734 11 3
1708348267.6409 656 737 10 3
1708348267.6568 661 738 5 1
1708348267.6598 665 738 4 0
1708348267.6665 671 739 6 1
1708348267.6734 682 740 11 1
1708348267.6825 695 742 13 2
1708348267.6893 706 744 11 2
1708348267.6966 715 745 9 1
1708348267.7060 724 747 9 2
1708348267.7133 734 747 10 0
1708348267.7220 745 748 11 1
1708348267.7292 755 749 10 1
1708348267.7370 765 753 10 4
1708348267.7450 775 756 10 3
1708348267.7537 785 758 10 2
1708348267.7610 796 758 11 0
1708348267.7796 807 759 11 1
1708348267.7813 815 761 8 2
1708348267.7901 824 764 9 3
1708348267.7926 834 768 10 4
1708348267.8014 845 772 11 4
1708348267.8089 849 770 4 -2
1708348267.8169 854 770 5 0
1708348267.8261 865 774 11 4
1708348267.8330 878 780 13 6
1708348267.8407 888 783 10 3
1708348267.8502 895 784 7 1
1708348267.8575 901 785 6 1
1708348267.8654 912 787 11 2
1708348267.8739 924 791 12 4
1708348267.8808 933 794 9 3
1708348267.8886 940 796 7 2
1708348267.8982 949 798 9 2
1708348267.9055 959 800 10 2
1708348267.9135 970 804 11 4
1708348267.9218 978 809 8 5
1708348267.9300 986 812 8 3
1708348267.9367 995 813 9 1
1708348267.9462 1006 814 11 1
1708348267.9535 1015 817 9 3
1708348267.9614 1024 822 9 5
1708348267.9696 1033 826 9 4
1708348267.9768 1042 828 9 2
1708348267.9846 1052 829 10 1
1708348267.9941 1061 832 9 3
1708348268.0015 1070 838 9 6
1708348268.0087 1079 843 9 5
1708348268.0172 1089 845 10 2
1708348268.0256 1097 846 8 1
1708348268.0333 1106 849 9 3
1708348268.0417 1117 855 11 6
1708348268.0492 1127 859 10 4
1708348268.0574 1135 862 8 3
1708348268.0658 1142 863 7 1
1708348268.0732 1150 867 8 4
1708348268.0853 1161 873 11 6
1708348268.0895 1173 878 12 5
1708348268.0968 1183 881 10 3
1708348268.1058 1186 882 3 1
1708348268.1138 1191 885 5 3
1708348268.1211 1201 890 10 5
1708348268.1302 1213 895 12 5
1708348268.1379 1223 898 10 3
1708348268.1472 1230 901 7 3
1708348268.1534 1235 903 5 2
1708348268.1634 1243 908 8 5
1708348268.1689 1254 913 11 5
1708348268.1777 1265 917 11 4
1708348268.1863 1270 918 5 1
1708348268.1930 1276 920 6 2
1708348268.2006 1285 924 9 4
1708348268.2128 1296 928 11 4
1708348268.2174 1306 931 10 3
1708348268.2254 1314 934 8 3
1708348268.2342 1318 936 4 2
1708348268.2410 1324 939 6 3
1708348268.2496 1335 944 11 5
1708348268.2577 1348 948 13 4
1708348268.2651 1357 950 9 2
1708348268.2726 1363 952 6 2
1708348268.2817 1370 956 7 4
1708348268.2896 1380 962 10 6
1708348268.2967 1391 966 11 4
1708348268.3054 1399 968 8 2
1708348268.3128 1405 970 6 2
1708348268.3206 1414 974 9 4
1708348268.3301 1424 980 10 6
1708348268.3401 1434 983 10 3
1708348268.3496 1443 985 9 2
1708348268.3536 1453 989 10 4
1708348268.3609 1461 995 8 6
1708348268.3688 1464 998 3 3
1708348268.3772 1470 1001 6 3
1708348268.3925 1480 1006 10 5
1708348268.3949 1490 1013 10 7
1708348268.4018 1501 1019 11 6
1708348268.4089 1504 1020 3 1
1708348268.4173 1505 1021 1 1
1708348268.4267 1510 1028 5 7
1708348268.4336 1517 1036 7 8
1708348268.4414 1525 1042 8 6
1708348268.4495 1530 1045 5 3
1708348268.4566 1533 1048 3 3
1708348268.4648 1538 1053 5 5
1708348268.4739 1544 1060 6 7
1708348268.4809 1551 1066 7 6
1708348268.4889 1557 1070 6 4
1708348268.4976 1560 1074 3 4
1708348268.5050 1563 1080 3 6
1708348268.5130 1570 1087 7 7
1708348268.5214 1578 1092 8 5
1708348268.5288 1584 1096 6 4
1708348268.5375 1588 1102 4 6
1708348268.5460 1591 1109 3 7
1708348268.5534 1597 1115 6 6
1708348268.5615 1604 1121 7 6
1708348268.5698 1611 1127 7 6
1708348268.5798 1616 1134 5 7
1708348268.5855 1619 1140 3 6
1708348268.5940 1624 1147 5 7
1708348268.6009 1631 1151 7 4
1708348268.6090 1638 1157 7 6
1708348268.6176 1642 1165 4 8
1708348268.6281 1646 1173 4 8
1708348268.6326 1652 1178 6 5
1708348268.6414 1660 1184 8 6
1708348268.6514 1664 1189 4 5
1708348268.6566 1667 1195 3 6
1708348268.6654 1674 1203 7 8
1708348268.6729 1682 1209 8 6
1708348268.6836 1689 1215 7 6
1708348268.6895 1694 1222 5 7
1708348268.6970 1699 1230 5 8
1708348268.7056 1706 1236 7 6
1708348268.7143 1713 1241 7 5
1708348268.7215 1720 1247 7 6
1708348268.7289 1725 1255 5 8
1708348268.7375 1729 1262 4 7
1708348268.7454 1735 1267 6 5
1708348268.7529 1743 1273 8 6
1708348268.7612 1750 1281 7 8
1708348268.7691 1754 1289 4 8
1708348268.7774 1758 1294 4 5
1708348268.7863 1764 1299 6 5
1708348268.7930 1772 1306 8 7
1708348268.8012 1779 1315 7 9
1708348268.8162 1783 1322 4 7
1708348268.8184 1786 1327 3 5
1708348268.8253 1790 1331 4 4
1708348268.8350 1794 1335 4 4
1708348268.8407 1800 1342 6 7
1708348268.8489 1807 1351 7 9
1708348268.8572 1811 1359 4 8
1708348268.8656 1814 1364 3 5
1708348268.8726 1820 1370 6 6
1708348268.8815 1828 1377 8 7
1708348268.8892 1832 1384 4 7
1708348268.8976 1836 1391 4 7
1708348268.9124 1840 1397 4 6
1708348268.9145 1846 1405 6 8
1708348268.9210 1852 1411 6 6
1708348268.9299 1851 1412 -1 1
1708348268.9366 1852 1417 1 5
1708348268.9446 1857 1426 5 9
1708348268.9541 1863 1435 6 9
1708348268.9614 1867 1441 4 6
1708348268.9693 1870 1447 3 6
1708348268.9785 1873 1454 3 7
1708348268.9853 1878 1462 5 8
1708348268.9928 1884 1469 6 7
1708348269.0077 1888 1474 4 5
1708348269.0104 1891 1480 3 6
1708348269.0174 1891 1487 0 7
1708348269.0260 1892 1491 1 4
1708348269.0334 1897 1495 5 4
1708348269.0415 1903 1501 6 6
1708348269.0503 1908 1510 5 9
1708348269.0570 1912 1518 4 8
1708348269.0650 1915 1523 3 5
1708348269.0734 1920 1528 5 5
1708348269.0911 1926 1535 6 7
1708348269.0935 1929 1544 3 9
1708348269.1007 1934 1552 5 8
1708348269.1058 1938 1555 4 3
1708348269.1131 1940 1557 2 2
1708348269.1215 1940 1563 0 6
1708348269.1288 1945 1573 5 10
1708348269.1373 1952 1581 7 8
1708348269.1455 1960 1585 8 4
1708348269.1528 1965 1590 5 5
1708348269.1607 1967 1597 2 7
1708348269.1701 1970 1605 3 8
1708348269.1775 1977 1612 7 7
1708348269.1850 1984 1617 7 5
1708348269.1942 1988 1624 4 7
1708348269.2015 1990 1631 2 7
1708348269.2095 1995 1638 5 7
1708348269.2178 2003 1644 8 6
1708348269.2251 2010 1649 7 5
1708348269.2336 2015 1655 5 6
1708348269.2417 2018 1664 3 9
1708348269.2491 2024 1671 6 7
1708348269.2576 2033 1676 9 5
1708348269.2660 2040 1680 7 4
1708348269.2733 2044 1687 4 7
1708348269.2817 2050 1696 6 9
1708348269.2900 2058 1703 8 7
1708348269.2973 2065 1709 7 6
1708348269.3052 2071 1713 6 4
1708348269.3135 2075 1718 4 5
1708348269.3208 2081 1727 6 9
1708348269.3296 2089 1735 8 8
1708348269.3379 2096 1741 7 6
1708348269.3447 2102 1746 6 5
1708348269.3527 2107 1754 5 8
1708348269.3623 2111 1762 4 8
1708348269.3697 2117 1768 6 6
1708348269.3769 2126 1773 9 5
1708348269.3858 2133 1780 7 7
1708348269.3934 2137 1788 4 8
1708348269.4016 2141 1795 4 7
1708348269.4098 2148 1800 7 5
1708348269.4175 2156 1807 8 7
1708348269.4253 2164 1814 8 7
1708348269.4340 2168 1822 4 8
1708348269.4426 2171 1828 3 6
1708348269.4491 2175 1834 4 6
1708348269.4576 2182 1841 7 7
1708348269.4647 2191 1848 9 7
1708348269.4736 2198 1853 7 5
1708348269.4821 2202 1858 4 5
1708348269.4896 2206 1866 4 8
1708348269.4972 2213 1875 7 9
1708348269.5054 2222 1881 9 6
1708348269.5129 2228 1885 6 4
1708348269.5212 2232 1891 4 6
1708348269.5298 2237 1899 5 8
1708348269.5370 2245 1908 8 9
1708348269.5447 2254 1914 9 6
1708348269.5537 2258 1918 4 4
1708348269.5613 2262 1923 4 5
1708348269.5712 2268 1931 6 8
1708348269.5776 2276 1941 8 10
1708348269.5857 2286 1948 10 7
1708348269.5927 2291 1952 5 4
1708348269.6012 2295 1956 4 4
1708348269.6096 2300 1963 5 7
1708348269.6168 2308 1972 8 9
1708348269.6255 2317 1979 9 7
1708348269.6337 2323 1983 6 4
1708348269.6419 2327 1988 4 5
1708348269.6493 2332 1995 5 7
1708348269.6577 2340 2003 8 8
1708348269.6654 2348 2009 8 6
1708348269.6744 2354 2015 6 6
1708348269.6808 2359 2019 5 4
1708348269.6895 2365 2025 6 6
1708348269.7043 2372 2033 7 8
1708348269.7061 2380 2041 8 8
1708348269.7209 2385 2047 5 6
1708348269.7227 2383 2044 -2 -3
1708348269.7299 2379 2038 -4 -6
1708348269.7375 2382 2040 3 2
1708348269.7459 2392 2048 10 8
1708348269.7533 2401 2056 9 8
1708348269.7607 2405 2061 4 5
1708348269.7693 2407 2068 2 7
1708348269.7777 2413 2076 6 8
1708348269.7853 2422 2084 9 8
1708348269.7939 2431 2090 9 6
1708348269.8014 2435 2095 4 5
1708348269.8094 2438 2101 3 6
1708348269.8182 2445 2110 7 9
1708348269.8248 2454 2119 9 9
1708348269.8336 2464 2126 10 7
1708348269.8422 2469 2130 5 4
1708348269.8492 2472 2136 3 6
1708348269.8573 2478 2144 6 8
1708348269.8701 2487 2150 9 6
1708348269.8731 2496 2156 9 6
1708348269.8857 2502 2162 6 6
1708348269.8901 2501 2166 -1 4
1708348269.8969 2501 2169 0 3
1708348269.9060 2508 2175 7 6
1708348269.9133 2519 2183 11 8
1708348269.9208 2527 2190 8 7
1708348269.9289 2530 2195 3 5
1708348269.9382 2534 2199 4 4
1708348269.9446 2542 2205 8 6
1708348269.9528 2551 2212 9 7
1708348269.9619 2558 2217 7 5
1708348269.9695 2562 2221 4 4
1708348269.9777 2568 2227 6 6
1708348269.9856 2576 2235 8 8
1708348269.9930 2584 2243 8 8
1708348270.0008 2591 2249 7 6
1708348270.0092 2596 2253 5 4
1708348270.0176 2600 2258 4 5
1708348270.0256 2607 2266 7 8
1708348270.0336 2616 2275 9 9
1708348270.0410 2624 2280 8 5
1708348270.0487 2629 2284 5 4
1708348270.0577 2633 2291 4 7
1708348270.0649 2639 2299 6 8
1708348270.0731 2647 2307 8 8
1708348270.0822 2654 2312 7 5
1708348270.0908 2660 2316 6 4
1708348270.0969 2666 2322 6 6
1708348270.1059 2672 2330 6 8
1708348270.1132 2677 2337 5 7
1708348270.1211 2683 2343 6 6
1708348270.1295 2690 2348 7 5
1708348270.1375 2698 2355 8 7
1708348270.1456 2704 2363 6 8
1708348270.1540 2710 2370 6 7
1708348270.1615 2716 2376 6 6
1708348270.1689 2723 2381 7 5
1708348270.1774 2730 2388 7 7
1708348270.1855 2736 2395 6 7
1708348270.1931 2741 2401 5 6
1708348270.2016 2747 2407 6 6
1708348270.2091 2754 2414 7 7
1708348270.2188 2761 2421 7 7
1708348270.2300 2766 2427 5 6
1708348270.2328 2770 2431 4 4
1708348270.2420 2776 2437 6 6
1708348270.2527 2779 2441 3 4
1708348270.2632 2785 2448 6 7
1708348270.2657 2795 2457 10 9
1708348270.2749 2803 2465 8 8
1708348270.2845 2803 2464 0 -1
1708348270.2896 2803 2464 0 0
1708348270.2982 2807 2470 4 6
1708348270.3049 2815 2480 8 10
1708348270.3133 2824 2489 9 9
