% Pose without folding and reset (log_20240219_141105.902/log_pose_abs.txt)
% 1 	Time (sec)
% 2,3 	Position x,y (m)
% 4 	heading (rad)
% 5 	Driven distance (m) - signed
% 6 	Turned angle (rad) - signed
1708348266.4745 0.000 0.000 0.0000 0.000 0.0000
1708348266.4820 0.000 0.000 0.0000 0.000 0.0000
1708348266.4899 0.000 0.000 0.0000 0.000 0.0000
1708348266.4965 0.000 0.000 0.0000 0.000 0.0000
1708348266.5048 0.000 0.000 0.0000 0.000 0.0000
1708348266.5131 0.000 0.000 0.0000 0.000 0.0000
1708348266.5202 0.000 0.000 0.0000 0.000 0.0000
1708348266.5294 0.000 0.000 0.0000 0.000 0.0000
1708348266.5371 0.000 0.000 0.0000 0.000 0.0000
1708348266.5447 0.000 0.000 0.0000 0.000 0.0000
1708348266.5523 0.000 0.000 0.0000 0.000 0.0000
1708348266.5604 0.000 0.000 0.0000 0.000 0.0000
1708348266.5691 0.000 0.000 0.0000 0.000 0.0000
1708348266.5784 0.000 0.000 0.0000 0.000 0.0000
1708348266.5934 0.000 0.000 0.0000 0.000 0.0000
1708348266.6011 0.000 0.000 0.0000 0.000 0.0000
1708348266.6091 0.000 0.000 0.0016 0.000 0.0016
1708348266.6176 0.001 0.000 0.0047 0.001 0.0047
1708348266.6249 0.002 0.000 0.0031 0.002 0.0031
1708348266.6326 0.003 0.000 -0.0016 0.003 -0.0016
1708348266.6413 0.003 0.000 -0.0000 0.003 -0.0000
1708348266.6491 0.004 0.000 -0.0000 0.004 -0.0000
1708348266.6571 0.006 0.000 -0.0000 0.006 -0.0000
1708348266.6650 0.007 0.000 -0.0000 0.007 -0.0000
1708348266.6731 0.008 0.000 -0.0000 0.008 -0.0000
1708348266.6815 0.010 0.000 -0.0016 0.010 -0.0016
1708348266.6890 0.012 0.000 0.0000 0.012 0.0000
1708348266.6976 0.014 0.000 -0.0016 0.014 -0.0016
1708348266.7048 0.016 -0.000 -0.0031 0.016 -0.0031
1708348266.7128 0.018 -0.000 -0.0016 0.018 -0.0016
1708348266.7220 0.021 -0.000 -0.0016 0.021 -0.0016
1708348266.7294 0.023 -0.000 -0.0031 0.023 -0.0031
1708348266.7410 0.026 -0.000 -0.0031 0.026 -0.0031
1708348266.7472 0.028 -0.000 0.0000 0.028 0.0000
1708348266.7532 0.030 -0.000 0.0016 0.030 0.0016
1708348266.7612 0.033 -0.000 -0.0016 0.033 -0.0016
1708348266.7699 0.035 -0.000 -0.0031 0.035 -0.0031
1708348266.7768 0.037 -0.000 -0.0016 0.037 -0.0016
1708348266.7870 0.040 -0.000 0.0016 0.040 0.0016
1708348266.7937 0.043 -0.000 0.0031 0.043 0.0031
1708348266.8008 0.045 -0.000 -0.0016 0.045 -0.0016
1708348266.8226 0.048 -0.000 -0.0047 0.048 -0.0047
1708348266.8382 0.049 -0.000 -0.0062 0.049 -0.0062
1708348266.8566 0.051 -0.000 -0.0062 0.051 -0.0062
1708348266.8678 0.052 -0.000 -0.0031 0.052 -0.0031
1708348266.8741 0.054 -0.000 0.0047 0.054 0.0047
1708348266.8888 0.057 -0.000 0.0109 0.057 0.0109
1708348266.8928 0.060 0.000 0.0124 0.060 0.0124
1708348266.8969 0.064 0.000 0.0124 0.064 0.0124
1708348266.8986 0.068 0.000 0.0093 0.068 0.0093
1708348266.9108 0.071 0.000 0.0078 0.071 0.0078
1708348266.9133 0.074 0.000 0.0062 0.074 0.0062
1708348266.9161 0.076 0.000 0.0000 0.076 0.0000
1708348266.9194 0.078 0.000 -0.0031 0.078 -0.0031
1708348266.9212 0.077 0.000 0.0000 0.077 0.0000
1708348266.9229 0.075 0.000 0.0000 0.075 0.0000
1708348266.9332 0.073 0.000 0.0000 0.073 0.0000
1708348266.9399 0.074 0.000 0.0031 0.074 0.0031
1708348266.9504 0.076 0.000 0.0062 0.076 0.0062
1708348266.9528 0.080 0.000 0.0047 0.080 0.0047
1708348266.9630 0.083 0.000 0.0000 0.083 0.0000
1708348266.9718 0.083 0.000 -0.0047 0.083 -0.0047
1708348266.9774 0.083 0.000 -0.0093 0.083 -0.0093
1708348266.9862 0.083 0.000 -0.0093 0.083 -0.0093
1708348266.9927 0.085 0.000 -0.0062 0.085 -0.0062
1708348267.0008 0.088 0.000 -0.0078 0.088 -0.0078
1708348267.0098 0.090 0.000 -0.0109 0.090 -0.0109
1708348267.0170 0.091 0.000 -0.0124 0.091 -0.0124
1708348267.0268 0.093 0.000 -0.0109 0.093 -0.0109
1708348267.0341 0.096 0.000 -0.0109 0.096 -0.0109
1708348267.0416 0.099 0.000 -0.0109 0.099 -0.0109
1708348267.0509 0.102 0.000 -0.0109 0.102 -0.0109
1708348267.0577 0.103 -0.000 -0.0093 0.103 -0.0093
1708348267.0668 0.105 -0.000 -0.0124 0.105 -0.0124
1708348267.0731 0.107 -0.000 -0.0124 0.108 -0.0124
1708348267.0814 0.111 -0.000 -0.0124 0.111 -0.0124
1708348267.0895 0.113 -0.000 -0.0093 0.113 -0.0093
1708348267.0980 0.115 -0.000 -0.0093 0.115 -0.0093
1708348267.1056 0.117 -0.000 -0.0109 0.117 -0.0109
1708348267.1126 0.120 -0.000 -0.0140 0.120 -0.0140
1708348267.1260 0.122 -0.000 -0.0155 0.122 -0.0155
1708348267.1358 0.124 -0.000 -0.0140 0.124 -0.0140
1708348267.1383 0.126 -0.000 -0.0124 0.126 -0.0124
1708348267.1484 0.129 -0.000 -0.0109 0.129 -0.0109
1708348267.1544 0.129 -0.000 -0.0109 0.129 -0.0109
1708348267.1615 0.130 -0.000 -0.0109 0.130 -0.0109
1708348267.1687 0.133 -0.000 -0.0140 0.133 -0.0140
1708348267.1776 0.136 -0.000 -0.0171 0.136 -0.0171
1708348267.1849 0.138 -0.000 -0.0155 0.138 -0.0155
1708348267.1933 0.139 -0.000 -0.0140 0.139 -0.0140
1708348267.2014 0.141 -0.000 -0.0078 0.141 -0.0078
1708348267.2104 0.144 -0.001 -0.0047 0.144 -0.0047
1708348267.2198 0.146 -0.001 -0.0062 0.146 -0.0062
1708348267.2283 0.148 -0.001 -0.0047 0.148 -0.0047
1708348267.2391 0.150 -0.001 0.0047 0.150 0.0047
1708348267.2414 0.152 -0.001 0.0155 0.152 0.0155
1708348267.2498 0.154 -0.000 0.0248 0.154 0.0248
1708348267.2567 0.154 -0.000 0.0202 0.154 0.0202
1708348267.2655 0.157 -0.000 0.0217 0.157 0.0217
1708348267.2740 0.160 -0.000 0.0373 0.160 0.0373
1708348267.2819 0.162 -0.000 0.0590 0.162 0.0590
1708348267.2897 0.164 -0.000 0.0699 0.164 0.0699
1708348267.2993 0.166 0.000 0.0776 0.166 0.0776
1708348267.3056 0.168 0.000 0.0885 0.168 0.0885
1708348267.3145 0.171 0.000 0.1024 0.171 0.1024
1708348267.3218 0.173 0.001 0.1133 0.173 0.1133
1708348267.3336 0.175 0.001 0.1288 0.175 0.1288
1708348267.3389 0.177 0.001 0.1428 0.177 0.1428
1708348267.3460 0.179 0.002 0.1568 0.179 0.1568
1708348267.3593 0.181 0.002 0.1707 0.181 0.1707
1708348267.3771 0.186 0.003 0.1925 0.186 0.1925
1708348267.3814 0.189 0.003 0.2080 0.189 0.2080
1708348267.3891 0.192 0.004 0.2235 0.193 0.2235
1708348267.3957 0.194 0.005 0.2344 0.194 0.2344
1708348267.4009 0.195 0.005 0.2390 0.195 0.2390
1708348267.4106 0.196 0.005 0.2453 0.197 0.2453
1708348267.4197 0.199 0.006 0.2546 0.199 0.2546
1708348267.4248 0.202 0.007 0.2639 0.203 0.2639
1708348267.4334 0.205 0.007 0.2732 0.206 0.2732
1708348267.4418 0.206 0.008 0.2810 0.207 0.2810
1708348267.4494 0.207 0.008 0.2856 0.208 0.2856
1708348267.4573 0.209 0.009 0.2887 0.210 0.2887
1708348267.4665 0.212 0.009 0.2887 0.213 0.2887
1708348267.4735 0.215 0.010 0.2918 0.216 0.2918
1708348267.4817 0.217 0.011 0.2949 0.218 0.2949
1708348267.4894 0.218 0.011 0.2965 0.220 0.2965
1708348267.4971 0.221 0.012 0.2934 0.222 0.2934
1708348267.5053 0.223 0.013 0.2887 0.224 0.2887
1708348267.5140 0.225 0.013 0.2872 0.226 0.2872
1708348267.5206 0.227 0.014 0.2856 0.229 0.2856
1708348267.5288 0.229 0.015 0.2825 0.231 0.2825
1708348267.5405 0.231 0.015 0.2747 0.233 0.2747
1708348267.5455 0.233 0.016 0.2670 0.235 0.2670
1708348267.5526 0.235 0.016 0.2577 0.237 0.2577
1708348267.5624 0.237 0.017 0.2530 0.239 0.2530
1708348267.5702 0.239 0.017 0.2437 0.241 0.2437
1708348267.5768 0.241 0.018 0.2297 0.244 0.2297
1708348267.5861 0.244 0.018 0.2173 0.246 0.2173
1708348267.5933 0.245 0.019 0.2096 0.248 0.2096
1708348267.6013 0.248 0.019 0.1971 0.250 0.1971
1708348267.6102 0.250 0.020 0.1816 0.253 0.1816
1708348267.6176 0.252 0.020 0.1676 0.255 0.1676
1708348267.6324 0.254 0.020 0.1552 0.257 0.1552
1708348267.6355 0.257 0.021 0.1428 0.260 0.1428
1708348267.6409 0.259 0.021 0.1319 0.262 0.1319
1708348267.6568 0.261 0.021 0.1257 0.263 0.1257
1708348267.6598 0.261 0.021 0.1195 0.264 0.1195
1708348267.6665 0.263 0.021 0.1118 0.265 0.1118
1708348267.6734 0.265 0.022 0.0962 0.267 0.0962
1708348267.6825 0.268 0.022 0.0792 0.270 0.0792
1708348267.6893 0.270 0.022 0.0652 0.273 0.0652
1708348267.6966 0.272 0.022 0.0528 0.275 0.0528
1708348267.7060 0.274 0.022 0.0419 0.277 0.0419
1708348267.7133 0.276 0.022 0.0264 0.279 0.0264
1708348267.7220 0.278 0.022 0.0109 0.281 0.0109
1708348267.7292 0.280 0.022 -0.0031 0.283 -0.0031
1708348267.7370 0.283 0.022 -0.0124 0.286 -0.0124
1708348267.7450 0.285 0.022 -0.0233 0.288 -0.0233
1708348267.7537 0.288 0.022 -0.0357 0.290 -0.0357
1708348267.7610 0.290 0.022 -0.0528 0.292 -0.0528
1708348267.7813 0.294 0.022 -0.0776 0.296 -0.0776
1708348267.7901 0.296 0.022 -0.0869 0.299 -0.0869
1708348267.7926 0.299 0.022 -0.0962 0.301 -0.0962
1708348267.8014 0.302 0.021 -0.1071 0.304 -0.1071
1708348267.8089 0.302 0.021 -0.1164 0.305 -0.1164
1708348267.8169 0.303 0.021 -0.1242 0.306 -0.1242
1708348267.8261 0.306 0.021 -0.1350 0.308 -0.1350
1708348267.8330 0.309 0.020 -0.1459 0.312 -0.1459
1708348267.8407 0.312 0.020 -0.1568 0.314 -0.1568
1708348267.8502 0.313 0.020 -0.1661 0.316 -0.1661
1708348267.8575 0.314 0.019 -0.1739 0.317 -0.1739
1708348267.8654 0.317 0.019 -0.1878 0.320 -0.1878
1708348267.8739 0.320 0.018 -0.2002 0.323 -0.2002
1708348267.8808 0.322 0.018 -0.2096 0.325 -0.2096
1708348267.8886 0.324 0.018 -0.2173 0.327 -0.2173
1708348267.8982 0.326 0.017 -0.2282 0.329 -0.2282
1708348267.9055 0.328 0.017 -0.2406 0.331 -0.2406
1708348267.9135 0.331 0.016 -0.2515 0.334 -0.2515
1708348267.9218 0.333 0.015 -0.2561 0.336 -0.2561
1708348267.9300 0.335 0.015 -0.2639 0.338 -0.2639
1708348267.9367 0.337 0.014 -0.2763 0.340 -0.2763
1708348267.9462 0.339 0.014 -0.2918 0.342 -0.2918
1708348267.9535 0.341 0.013 -0.3011 0.345 -0.3011
1708348267.9614 0.344 0.012 -0.3073 0.347 -0.3073
1708348267.9696 0.346 0.011 -0.3151 0.350 -0.3151
1708348267.9768 0.348 0.011 -0.3260 0.352 -0.3260
1708348267.9846 0.350 0.010 -0.3399 0.354 -0.3399
1708348267.9941 0.352 0.009 -0.3493 0.356 -0.3493
1708348268.0015 0.355 0.008 -0.3539 0.359 -0.3539
1708348268.0087 0.357 0.007 -0.3601 0.362 -0.3601
1708348268.0172 0.359 0.007 -0.3725 0.364 -0.3725
1708348268.0256 0.361 0.006 -0.3834 0.366 -0.3834
1708348268.0333 0.363 0.005 -0.3927 0.368 -0.3927
1708348268.0417 0.366 0.004 -0.4005 0.371 -0.4005
1708348268.0492 0.368 0.003 -0.4098 0.374 -0.4098
1708348268.0574 0.370 0.002 -0.4176 0.376 -0.4176
1708348268.0658 0.372 0.001 -0.4269 0.377 -0.4269
1708348268.0732 0.374 0.000 -0.4331 0.380 -0.4331
1708348268.0853 0.377 -0.001 -0.4408 0.383 -0.4408
1708348268.0895 0.380 -0.002 -0.4517 0.386 -0.4517
1708348268.0968 0.382 -0.003 -0.4626 0.389 -0.4626
1708348268.1058 0.382 -0.004 -0.4657 0.389 -0.4657
1708348268.1138 0.384 -0.004 -0.4688 0.391 -0.4688
1708348268.1211 0.386 -0.006 -0.4765 0.394 -0.4765
1708348268.1302 0.389 -0.007 -0.4874 0.397 -0.4874
1708348268.1379 0.391 -0.008 -0.4983 0.399 -0.4983
1708348268.1472 0.393 -0.009 -0.5045 0.401 -0.5045
1708348268.1534 0.394 -0.010 -0.5091 0.402 -0.5091
1708348268.1634 0.396 -0.011 -0.5138 0.405 -0.5138
1708348268.1689 0.399 -0.013 -0.5231 0.408 -0.5231
1708348268.1777 0.401 -0.014 -0.5340 0.411 -0.5340
1708348268.1863 0.402 -0.015 -0.5402 0.412 -0.5402
1708348268.1930 0.404 -0.015 -0.5464 0.413 -0.5464
1708348268.2006 0.406 -0.017 -0.5542 0.416 -0.5542
1708348268.2128 0.408 -0.018 -0.5650 0.419 -0.5650
1708348268.2174 0.410 -0.019 -0.5759 0.421 -0.5759
1708348268.2254 0.412 -0.021 -0.5836 0.423 -0.5836
1708348268.2342 0.413 -0.021 -0.5868 0.424 -0.5868
1708348268.2410 0.414 -0.022 -0.5914 0.426 -0.5914
1708348268.2496 0.417 -0.024 -0.6007 0.429 -0.6007
1708348268.2577 0.419 -0.026 -0.6147 0.432 -0.6147
1708348268.2651 0.421 -0.027 -0.6256 0.434 -0.6256
1708348268.2726 0.422 -0.028 -0.6318 0.436 -0.6318
1708348268.2817 0.424 -0.029 -0.6364 0.438 -0.6364
1708348268.2896 0.426 -0.031 -0.6426 0.441 -0.6426
1708348268.2967 0.429 -0.033 -0.6535 0.444 -0.6535
1708348268.3054 0.430 -0.034 -0.6628 0.446 -0.6628
1708348268.3128 0.431 -0.035 -0.6690 0.447 -0.6690
1708348268.3206 0.433 -0.036 -0.6768 0.450 -0.6768
1708348268.3301 0.436 -0.038 -0.6830 0.453 -0.6830
1708348268.3401 0.437 -0.040 -0.6939 0.455 -0.6939
1708348268.3496 0.439 -0.041 -0.7047 0.457 -0.7047
1708348268.3536 0.441 -0.043 -0.7140 0.460 -0.7140
1708348268.3609 0.443 -0.044 -0.7171 0.462 -0.7171
1708348268.3688 0.444 -0.045 -0.7171 0.464 -0.7171
1708348268.3772 0.445 -0.046 -0.7218 0.465 -0.7218
1708348268.3925 0.447 -0.048 -0.7296 0.468 -0.7296
1708348268.3949 0.450 -0.050 -0.7342 0.471 -0.7342
1708348268.4018 0.452 -0.052 -0.7420 0.475 -0.7420
1708348268.4089 0.453 -0.053 -0.7451 0.475 -0.7451
1708348268.4173 0.453 -0.053 -0.7451 0.476 -0.7451
1708348268.4267 0.454 -0.055 -0.7420 0.478 -0.7420
1708348268.4336 0.457 -0.057 -0.7404 0.481 -0.7404
1708348268.4414 0.459 -0.058 -0.7435 0.483 -0.7435
1708348268.4495 0.460 -0.059 -0.7466 0.485 -0.7466
1708348268.4566 0.460 -0.060 -0.7466 0.486 -0.7466
1708348268.4648 0.462 -0.062 -0.7466 0.488 -0.7466
1708348268.4739 0.464 -0.063 -0.7451 0.490 -0.7451
1708348268.4809 0.465 -0.065 -0.7466 0.493 -0.7466
1708348268.4889 0.467 -0.066 -0.7497 0.495 -0.7497
1708348268.4976 0.468 -0.067 -0.7482 0.496 -0.7482
1708348268.5050 0.469 -0.068 -0.7435 0.498 -0.7435
1708348268.5130 0.471 -0.070 -0.7435 0.500 -0.7435
1708348268.5214 0.473 -0.072 -0.7482 0.503 -0.7482
1708348268.5288 0.474 -0.073 -0.7513 0.505 -0.7513
1708348268.5375 0.476 -0.074 -0.7482 0.507 -0.7482
1708348268.5460 0.477 -0.075 -0.7420 0.508 -0.7420
1708348268.5534 0.479 -0.077 -0.7420 0.511 -0.7420
1708348268.5615 0.480 -0.079 -0.7435 0.513 -0.7435
1708348268.5698 0.482 -0.080 -0.7451 0.516 -0.7451
1708348268.5798 0.484 -0.082 -0.7420 0.518 -0.7420
1708348268.5855 0.485 -0.083 -0.7373 0.520 -0.7373
1708348268.5940 0.487 -0.085 -0.7342 0.522 -0.7342
1708348268.6009 0.488 -0.086 -0.7389 0.524 -0.7389
1708348268.6090 0.490 -0.088 -0.7404 0.526 -0.7404
1708348268.6176 0.492 -0.089 -0.7342 0.529 -0.7342
1708348268.6281 0.494 -0.091 -0.7280 0.531 -0.7280
1708348268.6326 0.495 -0.092 -0.7296 0.533 -0.7296
1708348268.6414 0.497 -0.094 -0.7327 0.536 -0.7327
1708348268.6514 0.498 -0.095 -0.7311 0.537 -0.7311
1708348268.6566 0.500 -0.096 -0.7265 0.539 -0.7265
1708348268.6654 0.502 -0.098 -0.7249 0.542 -0.7249
1708348268.6729 0.504 -0.100 -0.7280 0.544 -0.7280
1708348268.6836 0.505 -0.101 -0.7296 0.547 -0.7296
1708348268.6895 0.507 -0.103 -0.7265 0.549 -0.7265
1708348268.6970 0.509 -0.104 -0.7218 0.552 -0.7218
1708348268.7056 0.511 -0.106 -0.7234 0.554 -0.7234
1708348268.7143 0.513 -0.108 -0.7265 0.556 -0.7265
1708348268.7215 0.514 -0.109 -0.7280 0.559 -0.7280
1708348268.7289 0.516 -0.111 -0.7234 0.561 -0.7234
1708348268.7375 0.518 -0.112 -0.7187 0.563 -0.7187
1708348268.7454 0.519 -0.114 -0.7202 0.565 -0.7202
1708348268.7529 0.521 -0.115 -0.7234 0.568 -0.7234
1708348268.7612 0.523 -0.117 -0.7218 0.571 -0.7218
1708348268.7691 0.525 -0.119 -0.7156 0.573 -0.7156
1708348268.7774 0.526 -0.120 -0.7140 0.575 -0.7140
1708348268.7863 0.528 -0.121 -0.7156 0.577 -0.7156
1708348268.7930 0.530 -0.123 -0.7171 0.580 -0.7171
1708348268.8012 0.532 -0.125 -0.7140 0.583 -0.7140
1708348268.8162 0.534 -0.126 -0.7094 0.585 -0.7094
1708348268.8184 0.535 -0.127 -0.7063 0.586 -0.7063
1708348268.8253 0.536 -0.128 -0.7063 0.588 -0.7063
1708348268.8350 0.537 -0.129 -0.7063 0.589 -0.7063
1708348268.8407 0.539 -0.131 -0.7047 0.592 -0.7047
1708348268.8489 0.542 -0.133 -0.7016 0.595 -0.7016
1708348268.8572 0.543 -0.134 -0.6954 0.597 -0.6954
1708348268.8656 0.544 -0.135 -0.6923 0.599 -0.6923
1708348268.8726 0.546 -0.137 -0.6923 0.601 -0.6923
1708348268.8815 0.548 -0.138 -0.6939 0.604 -0.6939
1708348268.8892 0.550 -0.140 -0.6892 0.606 -0.6892
1708348268.8976 0.552 -0.141 -0.6845 0.608 -0.6845
1708348268.9124 0.553 -0.142 -0.6814 0.610 -0.6814
1708348268.9145 0.555 -0.144 -0.6783 0.612 -0.6783
1708348268.9210 0.557 -0.145 -0.6783 0.615 -0.6783
1708348268.9299 0.557 -0.145 -0.6752 0.615 -0.6752
1708348268.9366 0.558 -0.146 -0.6690 0.616 -0.6690
1708348268.9446 0.560 -0.148 -0.6628 0.618 -0.6628
1708348268.9541 0.562 -0.149 -0.6582 0.621 -0.6582
1708348268.9614 0.564 -0.151 -0.6551 0.623 -0.6551
1708348268.9693 0.565 -0.152 -0.6504 0.625 -0.6504
1708348268.9785 0.566 -0.153 -0.6442 0.627 -0.6442
1708348268.9853 0.568 -0.154 -0.6395 0.629 -0.6395
1708348268.9928 0.570 -0.156 -0.6380 0.632 -0.6380
1708348269.0077 0.572 -0.157 -0.6364 0.633 -0.6364
1708348269.0104 0.573 -0.158 -0.6318 0.635 -0.6318
1708348269.0174 0.574 -0.158 -0.6209 0.636 -0.6209
1708348269.0260 0.575 -0.159 -0.6162 0.637 -0.6162
1708348269.0334 0.576 -0.160 -0.6178 0.639 -0.6178
1708348269.0415 0.578 -0.161 -0.6178 0.641 -0.6178
1708348269.0503 0.580 -0.163 -0.6116 0.644 -0.6116
1708348269.0570 0.582 -0.164 -0.6054 0.646 -0.6054
1708348269.0650 0.583 -0.165 -0.6023 0.648 -0.6023
1708348269.0734 0.585 -0.166 -0.6023 0.650 -0.6023
1708348269.0911 0.587 -0.167 -0.6007 0.652 -0.6007
1708348269.0935 0.589 -0.169 -0.5914 0.654 -0.5914
1708348269.1007 0.591 -0.170 -0.5868 0.657 -0.5868
1708348269.1058 0.592 -0.171 -0.5883 0.658 -0.5883
1708348269.1131 0.593 -0.171 -0.5883 0.659 -0.5883
1708348269.1215 0.594 -0.172 -0.5790 0.660 -0.5790
1708348269.1288 0.596 -0.173 -0.5712 0.663 -0.5712
1708348269.1373 0.598 -0.175 -0.5697 0.666 -0.5697
1708348269.1455 0.600 -0.176 -0.5759 0.668 -0.5759
1708348269.1528 0.602 -0.177 -0.5759 0.670 -0.5759
1708348269.1607 0.603 -0.178 -0.5681 0.671 -0.5681
1708348269.1701 0.605 -0.179 -0.5604 0.673 -0.5604
1708348269.1775 0.607 -0.181 -0.5604 0.676 -0.5604
1708348269.1850 0.609 -0.182 -0.5635 0.678 -0.5635
1708348269.1942 0.611 -0.183 -0.5588 0.680 -0.5588
1708348269.2015 0.612 -0.184 -0.5511 0.682 -0.5511
1708348269.2095 0.614 -0.185 -0.5479 0.684 -0.5479
1708348269.2178 0.617 -0.186 -0.5511 0.687 -0.5511
1708348269.2251 0.618 -0.188 -0.5542 0.689 -0.5542
1708348269.2336 0.620 -0.189 -0.5526 0.691 -0.5526
1708348269.2417 0.622 -0.190 -0.5433 0.694 -0.5433
1708348269.2491 0.624 -0.191 -0.5417 0.696 -0.5417
1708348269.2576 0.626 -0.192 -0.5479 0.699 -0.5479
1708348269.2660 0.628 -0.194 -0.5526 0.701 -0.5526
1708348269.2733 0.630 -0.195 -0.5479 0.703 -0.5479
1708348269.2817 0.632 -0.196 -0.5433 0.706 -0.5433
1708348269.2900 0.635 -0.198 -0.5448 0.709 -0.5448
1708348269.2973 0.637 -0.199 -0.5464 0.711 -0.5464
1708348269.3052 0.639 -0.200 -0.5495 0.713 -0.5495
1708348269.3135 0.640 -0.201 -0.5479 0.715 -0.5479
1708348269.3208 0.642 -0.202 -0.5433 0.717 -0.5433
1708348269.3296 0.645 -0.204 -0.5433 0.720 -0.5433
1708348269.3379 0.647 -0.205 -0.5448 0.723 -0.5448
1708348269.3447 0.649 -0.206 -0.5464 0.725 -0.5464
1708348269.3527 0.651 -0.207 -0.5417 0.727 -0.5417
1708348269.3623 0.653 -0.208 -0.5355 0.730 -0.5355
1708348269.3697 0.655 -0.210 -0.5355 0.732 -0.5355
1708348269.3769 0.657 -0.211 -0.5417 0.735 -0.5417
1708348269.3858 0.659 -0.212 -0.5417 0.737 -0.5417
1708348269.3934 0.661 -0.214 -0.5355 0.739 -0.5355
1708348269.4016 0.663 -0.215 -0.5309 0.742 -0.5309
1708348269.4098 0.665 -0.216 -0.5340 0.744 -0.5340
1708348269.4175 0.668 -0.217 -0.5355 0.747 -0.5355
1708348269.4253 0.670 -0.219 -0.5371 0.749 -0.5371
1708348269.4340 0.672 -0.220 -0.5309 0.752 -0.5309
1708348269.4426 0.673 -0.221 -0.5262 0.753 -0.5262
1708348269.4491 0.675 -0.222 -0.5231 0.755 -0.5231
1708348269.4576 0.677 -0.223 -0.5231 0.758 -0.5231
1708348269.4647 0.680 -0.224 -0.5262 0.761 -0.5262
1708348269.4736 0.682 -0.226 -0.5293 0.763 -0.5293
1708348269.4821 0.683 -0.226 -0.5278 0.765 -0.5278
1708348269.4896 0.685 -0.228 -0.5216 0.767 -0.5216
1708348269.4972 0.688 -0.229 -0.5185 0.770 -0.5185
1708348269.5054 0.690 -0.230 -0.5231 0.773 -0.5231
1708348269.5129 0.692 -0.231 -0.5262 0.775 -0.5262
1708348269.5212 0.694 -0.232 -0.5231 0.777 -0.5231
1708348269.5298 0.696 -0.234 -0.5185 0.779 -0.5185
1708348269.5370 0.699 -0.235 -0.5169 0.782 -0.5169
1708348269.5447 0.701 -0.237 -0.5216 0.785 -0.5216
1708348269.5537 0.702 -0.237 -0.5216 0.787 -0.5216
1708348269.5613 0.704 -0.238 -0.5200 0.789 -0.5200
1708348269.5712 0.706 -0.239 -0.5169 0.791 -0.5169
1708348269.5776 0.709 -0.241 -0.5138 0.795 -0.5138
1708348269.5857 0.712 -0.243 -0.5185 0.798 -0.5185
1708348269.5927 0.713 -0.244 -0.5200 0.799 -0.5200
1708348269.6012 0.715 -0.244 -0.5200 0.801 -0.5200
1708348269.6096 0.717 -0.245 -0.5169 0.803 -0.5169
1708348269.6168 0.719 -0.247 -0.5153 0.806 -0.5153
1708348269.6255 0.722 -0.248 -0.5185 0.809 -0.5185
1708348269.6337 0.724 -0.249 -0.5216 0.811 -0.5216
1708348269.6419 0.725 -0.250 -0.5200 0.813 -0.5200
1708348269.6493 0.727 -0.251 -0.5169 0.815 -0.5169
