% Pose without folding and reset (log_20240219_144411.899/log_pose_abs.txt)
% 1 	Time (sec)
% 2,3 	Position x,y (m)
% 4 	heading (rad)
% 5 	Driven distance (m) - signed
% 6 	Turned angle (rad) - signed
1708350252.5087 0.000 0.000 0.0000 0.000 0.0000
1708350252.5175 0.000 0.000 0.0000 0.000 0.0000
1708350252.5245 0.000 0.000 0.0000 0.000 0.0000
1708350252.5322 0.000 0.000 0.0000 0.000 0.0000
1708350252.5405 0.000 0.000 0.0000 0.000 0.0000
1708350252.5485 0.000 0.000 0.0000 0.000 0.0000
1708350252.5557 0.000 0.000 0.0000 0.000 0.0000
1708350252.5664 0.000 0.000 0.0000 0.000 0.0000
1708350252.5717 0.000 0.000 0.0000 0.000 0.0000
1708350252.5797 0.000 0.000 0.0000 0.000 0.0000
1708350252.5887 0.000 0.000 0.0000 0.000 0.0000
1708350252.5957 0.000 0.000 0.0000 0.000 0.0000
1708350252.6037 0.000 0.000 0.0000 0.000 0.0000
1708350252.6124 0.000 0.000 0.0000 0.000 0.0000
1708350252.6204 0.000 0.000 0.0000 0.000 0.0000
1708350252.6285 0.000 0.000 0.0000 0.000 0.0000
1708350252.6379 0.001 0.000 0.0047 0.001 0.0047
1708350252.6437 0.002 0.000 0.0047 0.002 0.0047
1708350252.6522 0.003 0.000 0.0031 0.003 0.0031
1708350252.6616 0.003 0.000 0.0031 0.003 0.0031
1708350252.6688 0.004 0.000 0.0047 0.004 0.0047
1708350252.6766 0.005 0.000 0.0047 0.005 0.0047
1708350252.6851 0.007 0.000 0.0031 0.007 0.0031
1708350252.6922 0.008 0.000 0.0047 0.008 0.0047
1708350252.7047 0.010 0.000 0.0031 0.010 0.0031
1708350252.7104 0.012 0.000 0.0031 0.012 0.0031
1708350252.7186 0.014 0.000 0.0016 0.014 0.0016
1708350252.7239 0.015 0.000 0.0031 0.015 0.0031
1708350252.7328 0.018 0.000 0.0031 0.018 0.0031
1708350252.7403 0.020 0.000 0.0016 0.020 0.0016
1708350252.7476 0.022 0.000 -0.0000 0.022 -0.0000
1708350252.7573 0.025 0.000 -0.0000 0.025 -0.0000
1708350252.7653 0.027 0.000 -0.0000 0.027 -0.0000
1708350252.7726 0.030 0.000 -0.0000 0.030 -0.0000
1708350252.7813 0.032 0.000 -0.0000 0.032 -0.0000
1708350252.7884 0.035 0.000 0.0016 0.035 0.0016
1708350252.7984 0.037 0.000 0.0016 0.037 0.0016
1708350252.8054 0.039 0.000 0.0000 0.039 0.0000
1708350252.8118 0.042 0.000 -0.0016 0.042 -0.0016
1708350252.8206 0.045 0.000 -0.0031 0.045 -0.0031
1708350252.8289 0.046 0.000 -0.0031 0.046 -0.0031
1708350252.8360 0.048 0.000 -0.0016 0.048 -0.0016
1708350252.8440 0.051 0.000 -0.0016 0.051 -0.0016
1708350252.8525 0.055 0.000 -0.0016 0.055 -0.0016
1708350252.8598 0.057 0.000 -0.0016 0.057 -0.0016
1708350252.8680 0.059 0.000 -0.0016 0.059 -0.0016
1708350252.8762 0.061 0.000 -0.0047 0.061 -0.0047
1708350252.8868 0.064 0.000 -0.0047 0.064 -0.0047
1708350252.8922 0.066 0.000 -0.0016 0.066 -0.0016
1708350252.9009 0.069 0.000 -0.0016 0.069 -0.0016
1708350252.9076 0.070 0.000 -0.0016 0.070 -0.0016
1708350252.9166 0.072 0.000 -0.0031 0.072 -0.0031
1708350252.9255 0.075 -0.000 -0.0047 0.075 -0.0047
1708350252.9321 0.078 -0.000 -0.0047 0.078 -0.0047
1708350252.9397 0.081 -0.000 -0.0031 0.081 -0.0031
1708350252.9492 0.083 -0.000 -0.0016 0.083 -0.0016
1708350252.9561 0.084 -0.000 -0.0000 0.084 -0.0000
1708350252.9640 0.087 -0.000 -0.0016 0.087 -0.0016
1708350252.9723 0.090 -0.000 -0.0016 0.090 -0.0016
1708350252.9802 0.092 -0.000 -0.0016 0.092 -0.0016
1708350252.9879 0.094 -0.000 0.0000 0.094 0.0000
1708350252.9971 0.096 -0.000 0.0016 0.096 0.0016
1708350253.0045 0.099 -0.000 0.0016 0.099 0.0016
1708350253.0118 0.101 -0.000 0.0016 0.101 0.0016
1708350253.0206 0.104 -0.000 -0.0016 0.104 -0.0016
1708350253.0285 0.105 -0.000 -0.0016 0.105 -0.0016
1708350253.0361 0.108 -0.000 0.0000 0.108 0.0000
1708350253.0451 0.110 -0.000 0.0016 0.110 0.0016
1708350253.0518 0.113 -0.000 -0.0016 0.113 -0.0016
1708350253.0597 0.115 -0.000 -0.0016 0.115 -0.0016
1708350253.0683 0.116 -0.000 -0.0016 0.116 -0.0016
1708350253.0760 0.119 -0.000 0.0000 0.119 0.0000
1708350253.0838 0.122 -0.000 0.0016 0.122 0.0016
1708350253.0927 0.124 -0.000 0.0000 0.124 0.0000
1708350253.1004 0.126 -0.000 -0.0016 0.126 -0.0016
1708350253.1084 0.129 -0.000 -0.0016 0.129 -0.0016
1708350253.1168 0.132 -0.000 0.0000 0.132 0.0000
1708350253.1245 0.134 -0.000 0.0016 0.134 0.0016
1708350253.1322 0.136 -0.000 0.0000 0.136 0.0000
1708350253.1400 0.138 -0.000 -0.0031 0.138 -0.0031
1708350253.1477 0.141 -0.000 -0.0031 0.141 -0.0031
1708350253.1563 0.144 -0.000 0.0016 0.144 0.0016
1708350253.1652 0.146 -0.000 0.0047 0.146 0.0047
1708350253.1722 0.148 -0.000 0.0016 0.148 0.0016
1708350253.1800 0.151 -0.000 0.0000 0.151 0.0000
1708350253.1890 0.153 -0.000 0.0016 0.153 0.0016
1708350253.1965 0.155 -0.000 0.0078 0.155 0.0078
1708350253.2044 0.157 -0.000 0.0062 0.157 0.0062
1708350253.2123 0.160 -0.000 0.0000 0.160 -0.0000
1708350253.2200 0.163 -0.000 -0.0016 0.163 -0.0016
1708350253.2280 0.165 -0.000 0.0047 0.165 0.0047
1708350253.2422 0.167 -0.000 0.0093 0.167 0.0093
1708350253.2472 0.169 0.000 0.0062 0.169 0.0062
1708350253.2516 0.172 0.000 0.0016 0.172 0.0016
1708350253.2606 0.174 0.000 -0.0016 0.174 -0.0016
1708350253.2679 0.175 0.000 0.0016 0.175 0.0016
1708350253.2757 0.178 0.000 0.0062 0.178 0.0062
1708350253.2855 0.181 0.000 0.0062 0.181 0.0062
1708350253.2926 0.184 0.000 0.0016 0.184 0.0016
1708350253.3006 0.186 0.000 0.0000 0.186 -0.0000
1708350253.3086 0.187 0.000 0.0016 0.187 0.0016
1708350253.3162 0.189 0.000 0.0062 0.189 0.0062
1708350253.3243 0.192 0.000 0.0062 0.192 0.0062
1708350253.3332 0.195 0.000 0.0016 0.195 0.0016
1708350253.3398 0.197 0.000 0.0000 0.197 -0.0000
1708350253.3477 0.199 0.000 0.0047 0.199 0.0047
1708350253.3567 0.201 0.000 0.0109 0.201 0.0109
1708350253.3640 0.203 0.000 0.0093 0.203 0.0093
1708350253.3719 0.206 0.000 0.0031 0.206 0.0031
1708350253.3806 0.208 0.000 0.0016 0.208 0.0016
1708350253.3885 0.210 0.000 0.0047 0.210 0.0047
1708350253.3966 0.213 0.000 0.0078 0.213 0.0078
1708350253.4051 0.215 0.000 0.0062 0.215 0.0062
1708350253.4126 0.218 0.000 0.0016 0.218 0.0016
1708350253.4199 0.220 0.000 0.0031 0.220 0.0031
1708350253.4290 0.222 0.000 0.0047 0.222 0.0047
1708350253.4358 0.224 0.000 0.0062 0.224 0.0062
1708350253.4438 0.227 0.000 0.0047 0.227 0.0047
1708350253.4528 0.230 0.000 0.0016 0.230 0.0016
1708350253.4606 0.231 0.000 0.0000 0.231 0.0000
1708350253.4679 0.233 0.000 0.0031 0.233 0.0031
1708350253.4765 0.237 0.000 0.0031 0.237 0.0031
1708350253.4837 0.239 0.000 0.0000 0.239 0.0000
1708350253.4919 0.241 0.000 0.0016 0.241 0.0016
1708350253.5008 0.243 0.000 0.0031 0.243 0.0031
1708350253.5083 0.245 0.000 0.0031 0.245 0.0031
1708350253.5161 0.248 0.000 0.0031 0.248 0.0031
1708350253.5278 0.251 0.000 0.0016 0.251 0.0016
1708350253.5326 0.253 0.000 -0.0016 0.253 -0.0016
1708350253.5400 0.256 0.000 -0.0016 0.256 -0.0016
1708350253.5488 0.257 0.000 0.0000 0.257 0.0000
1708350253.5559 0.259 0.000 0.0016 0.259 0.0016
1708350253.5651 0.262 0.000 0.0016 0.262 0.0016
1708350253.5730 0.265 0.000 -0.0031 0.265 -0.0031
1708350253.5798 0.268 0.000 -0.0047 0.268 -0.0047
1708350253.5881 0.270 0.000 -0.0016 0.270 -0.0016
1708350253.5971 0.272 0.000 0.0031 0.272 0.0031
1708350253.6040 0.274 0.000 0.0016 0.274 0.0016
1708350253.6119 0.276 0.000 -0.0031 0.276 -0.0031
1708350253.6205 0.279 0.000 -0.0016 0.279 -0.0016
1708350253.6283 0.282 0.000 0.0031 0.282 0.0031
1708350253.6364 0.284 0.000 0.0016 0.284 0.0016
1708350253.6464 0.286 0.000 -0.0031 0.286 -0.0031
1708350253.6517 0.289 0.000 -0.0031 0.289 -0.0031
1708350253.6596 0.291 0.000 -0.0016 0.291 -0.0016
1708350253.6682 0.293 0.000 0.0016 0.293 0.0016
1708350253.6759 0.295 0.000 0.0016 0.295 0.0016
1708350253.6839 0.298 0.000 -0.0016 0.298 -0.0016
1708350253.6930 0.300 0.000 -0.0031 0.300 -0.0031
1708350253.7006 0.302 0.000 -0.0016 0.302 -0.0016
1708350253.7084 0.305 0.000 -0.0016 0.305 -0.0016
1708350253.7171 0.307 0.000 0.0000 0.307 0.0000
1708350253.7237 0.310 0.000 0.0000 0.310 0.0000
1708350253.7316 0.312 0.000 -0.0016 0.312 -0.0016
1708350253.7404 0.313 0.000 0.0000 0.313 0.0000
1708350253.7480 0.316 0.000 0.0016 0.316 0.0016
1708350253.7560 0.319 0.000 0.0016 0.319 0.0016
1708350253.7654 0.322 0.000 0.0000 0.322 0.0000
1708350253.7720 0.324 0.000 0.0000 0.324 0.0000
1708350253.7807 0.326 0.000 0.0000 0.326 0.0000
1708350253.7887 0.328 0.000 0.0016 0.328 0.0016
1708350253.7963 0.331 0.000 0.0016 0.331 0.0016
1708350253.8043 0.334 0.000 0.0000 0.334 0.0000
1708350253.8122 0.336 0.000 0.0000 0.336 0.0000
1708350253.8200 0.337 0.000 0.0000 0.337 0.0000
1708350253.8278 0.340 0.000 0.0016 0.340 0.0016
1708350253.8367 0.343 0.000 0.0031 0.343 0.0031
1708350253.8446 0.345 0.000 0.0047 0.345 0.0047
1708350253.8520 0.347 0.000 0.0047 0.347 0.0047
1708350253.8611 0.349 0.000 0.0124 0.349 0.0124
1708350253.8685 0.352 0.000 0.0186 0.352 0.0186
1708350253.8765 0.354 0.000 0.0202 0.354 0.0202
1708350253.8844 0.356 0.000 0.0248 0.356 0.0248
1708350253.8921 0.359 0.001 0.0326 0.359 0.0326
1708350253.9000 0.361 0.001 0.0435 0.361 0.0435
1708350253.9090 0.363 0.001 0.0512 0.363 0.0512
1708350253.9161 0.366 0.001 0.0574 0.366 0.0574
1708350253.9239 0.369 0.001 0.0652 0.369 0.0652
1708350253.9322 0.371 0.001 0.0761 0.371 0.0761
1708350253.9399 0.373 0.001 0.0885 0.373 0.0885
1708350253.9482 0.375 0.002 0.1009 0.376 0.1009
1708350253.9572 0.378 0.002 0.1102 0.378 0.1102
1708350253.9644 0.381 0.002 0.1242 0.381 0.1242
1708350253.9723 0.383 0.003 0.1366 0.383 0.1366
1708350253.9802 0.385 0.003 0.1475 0.385 0.1475
1708350253.9881 0.387 0.003 0.1568 0.388 0.1568
1708350253.9960 0.390 0.004 0.1707 0.390 0.1707
1708350254.0053 0.393 0.004 0.1816 0.393 0.1816
1708350254.0120 0.395 0.005 0.1894 0.396 0.1894
1708350254.0206 0.398 0.005 0.1987 0.398 0.1987
1708350254.0286 0.399 0.005 0.2142 0.400 0.2142
1708350254.0363 0.402 0.006 0.2251 0.402 0.2251
1708350254.0442 0.404 0.007 0.2313 0.405 0.2313
1708350254.0533 0.407 0.007 0.2359 0.408 0.2359
1708350254.0603 0.410 0.008 0.2453 0.410 0.2453
1708350254.0684 0.412 0.008 0.2577 0.413 0.2577
1708350254.0766 0.414 0.009 0.2685 0.414 0.2685
1708350254.0864 0.416 0.009 0.2747 0.417 0.2747
1708350254.0921 0.418 0.010 0.2794 0.419 0.2794
1708350254.1011 0.421 0.011 0.2825 0.422 0.2825
1708350254.1077 0.423 0.012 0.2887 0.424 0.2887
1708350254.1166 0.425 0.012 0.2949 0.426 0.2949
1708350254.1244 0.427 0.013 0.3011 0.428 0.3011
1708350254.1317 0.430 0.014 0.3027 0.431 0.3027
1708350254.1404 0.432 0.014 0.3058 0.434 0.3058
1708350254.1483 0.434 0.015 0.3073 0.436 0.3073
1708350254.1560 0.436 0.016 0.3105 0.438 0.3105
1708350254.1645 0.439 0.016 0.3105 0.441 0.3105
1708350254.1724 0.441 0.017 0.3120 0.443 0.3120
1708350254.1801 0.443 0.018 0.3105 0.445 0.3105
1708350254.1878 0.445 0.018 0.3105 0.447 0.3105
1708350254.1968 0.447 0.019 0.3089 0.450 0.3089
1708350254.2041 0.450 0.020 0.3058 0.452 0.3058
1708350254.2125 0.452 0.021 0.3011 0.454 0.3011
1708350254.2212 0.454 0.021 0.2965 0.457 0.2965
1708350254.2278 0.456 0.022 0.2949 0.459 0.2949
1708350254.2358 0.458 0.023 0.2887 0.461 0.2887
1708350254.2447 0.460 0.023 0.2810 0.463 0.2810
1708350254.2524 0.463 0.024 0.2732 0.466 0.2732
1708350254.2601 0.465 0.025 0.2685 0.468 0.2685
1708350254.2688 0.468 0.025 0.2608 0.471 0.2608
1708350254.2798 0.470 0.026 0.2515 0.473 0.2515
1708350254.2845 0.472 0.026 0.2406 0.475 0.2406
1708350254.2923 0.475 0.027 0.2328 0.478 0.2328
1708350254.2999 0.476 0.027 0.2282 0.480 0.2282
1708350254.3080 0.478 0.028 0.2220 0.481 0.2220
1708350254.3167 0.481 0.028 0.2096 0.484 0.2096
1708350254.3242 0.483 0.029 0.1956 0.487 0.1956
1708350254.3320 0.486 0.029 0.1863 0.489 0.1863
1708350254.3403 0.488 0.030 0.1816 0.491 0.1816
1708350254.3480 0.490 0.030 0.1739 0.493 0.1739
1708350254.3558 0.492 0.030 0.1614 0.496 0.1614
1708350254.3662 0.495 0.031 0.1506 0.499 0.1506
1708350254.3722 0.497 0.031 0.1428 0.501 0.1428
1708350254.3800 0.500 0.032 0.1382 0.504 0.1382
1708350254.3890 0.502 0.032 0.1304 0.506 0.1304
1708350254.3970 0.504 0.032 0.1180 0.508 0.1180
1708350254.4038 0.506 0.032 0.1056 0.510 0.1056
1708350254.4131 0.509 0.033 0.1009 0.513 0.1009
1708350254.4204 0.512 0.033 0.0978 0.515 0.0978
1708350254.4283 0.514 0.033 0.0885 0.518 0.0885
1708350254.4373 0.516 0.033 0.0761 0.520 0.0761
1708350254.4438 0.518 0.034 0.0652 0.522 0.0652
1708350254.4516 0.521 0.034 0.0590 0.525 0.0590
1708350254.4603 0.523 0.034 0.0559 0.527 0.0559
1708350254.4678 0.525 0.034 0.0481 0.529 0.0481
1708350254.4757 0.528 0.034 0.0357 0.532 0.0357
1708350254.4846 0.531 0.034 0.0264 0.535 0.0264
1708350254.4922 0.533 0.034 0.0233 0.537 0.0233
1708350254.4999 0.535 0.034 0.0171 0.539 0.0171
1708350254.5087 0.538 0.034 0.0078 0.541 0.0078
1708350254.5159 0.540 0.034 -0.0047 0.544 -0.0047
1708350254.5238 0.543 0.034 -0.0124 0.547 -0.0124
1708350254.5332 0.545 0.034 -0.0155 0.549 -0.0155
1708350254.5399 0.547 0.034 -0.0186 0.551 -0.0186
1708350254.5486 0.549 0.034 -0.0264 0.553 -0.0264
1708350254.5565 0.551 0.034 -0.0373 0.555 -0.0373
1708350254.5650 0.554 0.034 -0.0466 0.558 -0.0466
1708350254.5717 0.557 0.034 -0.0512 0.561 -0.0512
1708350254.5806 0.559 0.034 -0.0543 0.563 -0.0543
1708350254.5882 0.561 0.034 -0.0605 0.565 -0.0605
1708350254.5962 0.563 0.033 -0.0699 0.567 -0.0699
1708350254.6052 0.566 0.033 -0.0792 0.570 -0.0792
1708350254.6118 0.569 0.033 -0.0854 0.573 -0.0854
1708350254.6203 0.571 0.033 -0.0869 0.575 -0.0869
1708350254.6293 0.573 0.033 -0.0916 0.577 -0.0916
1708350254.6367 0.575 0.032 -0.1009 0.579 -0.1009
1708350254.6445 0.577 0.032 -0.1133 0.581 -0.1133
1708350254.6523 0.580 0.032 -0.1180 0.584 -0.1180
1708350254.6600 0.583 0.032 -0.1180 0.587 -0.1180
1708350254.6701 0.585 0.031 -0.1242 0.589 -0.1242
1708350254.6768 0.587 0.031 -0.1350 0.591 -0.1350
1708350254.6837 0.590 0.031 -0.1428 0.594 -0.1428
1708350254.6927 0.592 0.030 -0.1459 0.596 -0.1459
1708350254.7005 0.594 0.030 -0.1490 0.598 -0.1490
1708350254.7087 0.596 0.030 -0.1568 0.600 -0.1568
1708350254.7162 0.599 0.029 -0.1676 0.603 -0.1676
1708350254.7255 0.601 0.029 -0.1739 0.606 -0.1739
1708350254.7321 0.604 0.028 -0.1723 0.608 -0.1723
1708350254.7400 0.606 0.028 -0.1770 0.611 -0.1770
1708350254.7489 0.608 0.028 -0.1863 0.613 -0.1863
1708350254.7566 0.610 0.027 -0.1987 0.615 -0.1987
1708350254.7645 0.613 0.027 -0.2018 0.617 -0.2018
1708350254.7734 0.615 0.026 -0.2033 0.620 -0.2033
1708350254.7805 0.618 0.026 -0.2064 0.622 -0.2064
1708350254.7878 0.620 0.025 -0.2158 0.624 -0.2158
1708350254.7968 0.622 0.025 -0.2266 0.627 -0.2266
1708350254.8037 0.624 0.024 -0.2313 0.629 -0.2313
1708350254.8126 0.627 0.024 -0.2313 0.632 -0.2313
1708350254.8210 0.629 0.023 -0.2359 0.634 -0.2359
1708350254.8283 0.632 0.022 -0.2468 0.637 -0.2468
1708350254.8363 0.634 0.022 -0.2577 0.639 -0.2577
1708350254.8453 0.636 0.021 -0.2608 0.641 -0.2608
1708350254.8524 0.638 0.021 -0.2592 0.643 -0.2592
1708350254.8605 0.640 0.020 -0.2639 0.646 -0.2639
1708350254.8692 0.643 0.019 -0.2747 0.648 -0.2747
1708350254.8758 0.645 0.019 -0.2841 0.650 -0.2841
1708350254.8836 0.647 0.018 -0.2887 0.653 -0.2887
1708350254.8925 0.650 0.017 -0.2887 0.655 -0.2887
1708350254.9002 0.652 0.017 -0.2934 0.658 -0.2934
1708350254.9082 0.654 0.016 -0.3027 0.660 -0.3027
1708350254.9167 0.656 0.015 -0.3105 0.662 -0.3105
1708350254.9243 0.659 0.015 -0.3136 0.665 -0.3136
1708350254.9324 0.661 0.014 -0.3136 0.667 -0.3136
1708350254.9411 0.663 0.013 -0.3198 0.670 -0.3198
1708350254.9478 0.665 0.012 -0.3322 0.672 -0.3322
1708350254.9565 0.668 0.012 -0.3399 0.674 -0.3399
1708350254.9643 0.670 0.011 -0.3384 0.677 -0.3384
1708350254.9726 0.672 0.010 -0.3368 0.679 -0.3368
1708350254.9805 0.674 0.009 -0.3462 0.681 -0.3462
1708350254.9884 0.677 0.008 -0.3570 0.684 -0.3570
1708350254.9973 0.679 0.008 -0.3632 0.686 -0.3632
1708350255.0128 0.684 0.006 -0.3617 0.691 -0.3617
1708350255.0201 0.686 0.005 -0.3663 0.694 -0.3663
1708350255.0279 0.688 0.004 -0.3756 0.696 -0.3756
1708350255.0369 0.690 0.003 -0.3834 0.698 -0.3834
1708350255.0444 0.692 0.002 -0.3865 0.700 -0.3865
1708350255.0526 0.695 0.001 -0.3896 0.703 -0.3896
1708350255.0605 0.697 0.000 -0.3958 0.706 -0.3958
1708350255.0687 0.699 -0.001 -0.4051 0.708 -0.4051
1708350255.0758 0.701 -0.001 -0.4129 0.710 -0.4129
1708350255.0858 0.703 -0.002 -0.4160 0.713 -0.4160
1708350255.0924 0.706 -0.003 -0.4176 0.715 -0.4176
1708350255.1005 0.709 -0.005 -0.4238 0.718 -0.4238
1708350255.1088 0.711 -0.006 -0.4315 0.720 -0.4315
1708350255.1158 0.712 -0.006 -0.4377 0.722 -0.4377
1708350255.1248 0.714 -0.007 -0.4439 0.724 -0.4439
1708350255.1338 0.717 -0.008 -0.4502 0.727 -0.4502
1708350255.1398 0.719 -0.010 -0.4533 0.730 -0.4533
1708350255.1488 0.721 -0.011 -0.4595 0.732 -0.4595
1708350255.1575 0.723 -0.011 -0.4657 0.734 -0.4657
1708350255.1648 0.725 -0.013 -0.4719 0.736 -0.4719
1708350255.1720 0.728 -0.014 -0.4781 0.739 -0.4781
1708350255.1804 0.730 -0.015 -0.4843 0.742 -0.4843
1708350255.1882 0.731 -0.016 -0.4890 0.743 -0.4890
1708350255.1961 0.733 -0.017 -0.4936 0.746 -0.4936
1708350255.2047 0.736 -0.018 -0.4983 0.749 -0.4983
1708350255.2126 0.738 -0.020 -0.5060 0.751 -0.5060
1708350255.2206 0.740 -0.021 -0.5138 0.753 -0.5138
1708350255.2286 0.742 -0.022 -0.5200 0.755 -0.5200
1708350255.2363 0.744 -0.023 -0.5231 0.758 -0.5231
1708350255.2472 0.746 -0.024 -0.5278 0.760 -0.5278
1708350255.2529 0.748 -0.026 -0.5355 0.763 -0.5355
1708350255.2607 0.751 -0.027 -0.5433 0.766 -0.5433
1708350255.2688 0.752 -0.027 -0.5479 0.767 -0.5479
1708350255.2767 0.753 -0.028 -0.5511 0.769 -0.5511
1708350255.2844 0.756 -0.030 -0.5588 0.772 -0.5588
1708350255.2923 0.758 -0.032 -0.5650 0.775 -0.5650
1708350255.3003 0.760 -0.033 -0.5712 0.777 -0.5712
1708350255.3080 0.762 -0.034 -0.5774 0.779 -0.5774
1708350255.3165 0.763 -0.035 -0.5821 0.781 -0.5821
1708350255.3245 0.766 -0.036 -0.5868 0.784 -0.5868
1708350255.3323 0.768 -0.038 -0.5914 0.787 -0.5914
1708350255.3404 0.770 -0.039 -0.5976 0.789 -0.5976
1708350255.3483 0.772 -0.040 -0.6038 0.791 -0.6038
1708350255.3558 0.773 -0.042 -0.6100 0.793 -0.6100
1708350255.3638 0.776 -0.043 -0.6147 0.796 -0.6147
1708350255.3729 0.778 -0.045 -0.6162 0.798 -0.6162
1708350255.3797 0.779 -0.046 -0.6240 0.800 -0.6240
1708350255.3896 0.781 -0.047 -0.6302 0.803 -0.6302
1708350255.3967 0.783 -0.048 -0.6333 0.805 -0.6333
1708350255.4061 0.785 -0.050 -0.6380 0.807 -0.6380
1708350255.4164 0.787 -0.052 -0.6457 0.810 -0.6457
1708350255.4253 0.789 -0.053 -0.6519 0.812 -0.6519
1708350255.4278 0.791 -0.054 -0.6582 0.815 -0.6582
1708350255.4361 0.793 -0.056 -0.6613 0.817 -0.6613
1708350255.4459 0.793 -0.056 -0.6613 0.817 -0.6613
1708350255.4518 0.793 -0.056 -0.6582 0.817 -0.6582
1708350255.4610 0.794 -0.057 -0.6613 0.819 -0.6613
1708350255.4691 0.796 -0.059 -0.6690 0.822 -0.6690
1708350255.4759 0.800 -0.061 -0.6768 0.826 -0.6768
1708350255.4845 0.801 -0.063 -0.6799 0.828 -0.6799
1708350255.4932 0.802 -0.063 -0.6814 0.829 -0.6814
1708350255.4999 0.803 -0.064 -0.6861 0.830 -0.6861
1708350255.5087 0.805 -0.066 -0.6954 0.833 -0.6954
1708350255.5170 0.808 -0.068 -0.7001 0.836 -0.7001
1708350255.5239 0.809 -0.069 -0.7016 0.839 -0.7016
1708350255.5324 0.810 -0.070 -0.7032 0.840 -0.7032
1708350255.5411 0.812 -0.071 -0.7094 0.842 -0.7094
1708350255.5481 0.814 -0.073 -0.7156 0.844 -0.7156
1708350255.5559 0.816 -0.075 -0.7187 0.848 -0.7187
1708350255.5649 0.818 -0.077 -0.7187 0.850 -0.7187
1708350255.5736 0.819 -0.078 -0.7187 0.852 -0.7187
1708350255.5803 0.821 -0.079 -0.7234 0.854 -0.7234
1708350255.5888 0.823 -0.081 -0.7265 0.856 -0.7265
1708350255.5959 0.825 -0.083 -0.7265 0.859 -0.7265
1708350255.6043 0.826 -0.084 -0.7280 0.861 -0.7280
1708350255.6133 0.828 -0.085 -0.7311 0.863 -0.7311
1708350255.6203 0.830 -0.087 -0.7327 0.865 -0.7327
1708350255.6384 0.832 -0.089 -0.7373 0.868 -0.7373
1708350255.6451 0.833 -0.091 -0.7373 0.870 -0.7373
1708350255.6481 0.835 -0.092 -0.7389 0.872 -0.7389
1708350255.6537 0.837 -0.093 -0.7389 0.875 -0.7389
1708350255.6608 0.838 -0.095 -0.7373 0.876 -0.7373
1708350255.6687 0.839 -0.095 -0.7389 0.878 -0.7389
1708350255.6758 0.840 -0.097 -0.7404 0.879 -0.7404
1708350255.6847 0.842 -0.098 -0.7435 0.882 -0.7435
1708350255.6918 0.844 -0.101 -0.7435 0.885 -0.7435
1708350255.7005 0.846 -0.102 -0.7420 0.888 -0.7420
1708350255.7088 0.847 -0.103 -0.7420 0.889 -0.7420
1708350255.7161 0.848 -0.104 -0.7435 0.890 -0.7435
