% Pose without folding and reset (log_20240224_124900.687/log_pose_abs.txt)
% 1 	Time (sec)
% 2,3 	Position x,y (m)
% 4 	heading (rad)
% 5 	Driven distance (m) - signed
% 6 	Turned angle (rad) - signed
1708775340.8838 0.000 0.000 0.0000 0.000 0.0000
1708775340.8915 0.000 0.000 0.0000 0.000 0.0000
1708775340.8987 0.000 0.000 0.0000 0.000 0.0000
1708775340.9074 0.000 0.000 0.0000 0.000 0.0000
1708775340.9154 0.000 0.000 0.0000 0.000 0.0000
1708775340.9224 0.000 0.000 0.0000 0.000 0.0000
1708775340.9311 0.000 0.000 0.0000 0.000 0.0000
1708775340.9399 0.000 0.000 0.0000 0.000 0.0000
1708775340.9466 0.000 0.000 0.0000 0.000 0.0000
1708775340.9553 0.000 0.000 0.0000 0.000 0.0000
1708775340.9624 0.000 0.000 0.0000 0.000 0.0000
1708775340.9708 0.000 0.000 0.0000 0.000 0.0000
1708775340.9784 0.000 0.000 0.0000 0.000 0.0000
1708775340.9871 0.000 0.000 0.0000 0.000 0.0000
1708775340.9948 0.000 0.000 0.0000 0.000 0.0000
1708775341.0024 0.000 0.000 0.0016 0.000 0.0016
1708775341.0104 0.001 0.000 0.0078 0.001 0.0078
1708775341.0186 0.002 0.000 0.0109 0.002 0.0109
1708775341.0274 0.003 0.000 0.0062 0.003 0.0062
1708775341.0353 0.004 0.000 0.0047 0.004 0.0047
1708775341.0431 0.006 0.000 0.0047 0.006 0.0047
1708775341.0508 0.008 0.000 -0.0000 0.008 -0.0000
1708775341.0590 0.010 0.000 -0.0000 0.010 -0.0000
1708775341.0672 0.012 0.000 -0.0000 0.012 -0.0000
1708775341.0816 0.014 0.000 -0.0047 0.014 -0.0047
1708775341.0898 0.016 0.000 -0.0062 0.016 -0.0062
1708775341.0926 0.019 0.000 -0.0062 0.019 -0.0062
1708775341.0985 0.022 -0.000 -0.0078 0.022 -0.0078
1708775341.1069 0.023 -0.000 -0.0062 0.023 -0.0062
1708775341.1146 0.025 -0.000 -0.0047 0.025 -0.0047
1708775341.1236 0.028 -0.000 -0.0047 0.028 -0.0047
1708775341.1310 0.033 -0.000 -0.0047 0.033 -0.0047
1708775341.1400 0.037 -0.000 -0.0047 0.037 -0.0047
1708775341.1468 0.039 -0.000 -0.0031 0.039 -0.0031
1708775341.1551 0.042 -0.000 -0.0047 0.042 -0.0047
1708775341.1626 0.045 -0.000 -0.0078 0.045 -0.0078
1708775341.1716 0.049 -0.000 -0.0078 0.049 -0.0078
1708775341.1788 0.052 -0.000 -0.0062 0.052 -0.0062
1708775341.1873 0.055 -0.000 -0.0078 0.055 -0.0078
1708775341.1947 0.058 -0.000 -0.0109 0.058 -0.0109
1708775341.2031 0.061 -0.000 -0.0124 0.061 -0.0124
1708775341.2113 0.064 -0.000 -0.0093 0.065 -0.0093
1708775341.2191 0.068 -0.000 -0.0109 0.068 -0.0109
1708775341.2266 0.071 -0.000 -0.0109 0.071 -0.0109
1708775341.2358 0.074 -0.000 -0.0124 0.074 -0.0124
1708775341.2432 0.077 -0.000 -0.0124 0.077 -0.0124
1708775341.2508 0.081 -0.000 -0.0109 0.081 -0.0109
1708775341.2587 0.084 -0.001 -0.0140 0.084 -0.0140
1708775341.2665 0.086 -0.001 -0.0155 0.086 -0.0155
1708775341.2748 0.089 -0.001 -0.0140 0.089 -0.0140
1708775341.2830 0.093 -0.001 -0.0124 0.093 -0.0124
1708775341.2915 0.097 -0.001 -0.0140 0.097 -0.0140
1708775341.2988 0.100 -0.001 -0.0155 0.100 -0.0155
1708775341.3072 0.103 -0.001 -0.0155 0.103 -0.0155
1708775341.3150 0.105 -0.001 -0.0140 0.105 -0.0140
1708775341.3232 0.109 -0.001 -0.0140 0.109 -0.0140
1708775341.3307 0.112 -0.001 -0.0140 0.112 -0.0140
1708775341.3397 0.115 -0.001 -0.0186 0.115 -0.0186
1708775341.3471 0.118 -0.001 -0.0171 0.118 -0.0171
1708775341.3560 0.121 -0.001 -0.0155 0.121 -0.0155
1708775341.3626 0.124 -0.001 -0.0155 0.124 -0.0155
1708775341.3757 0.128 -0.001 -0.0171 0.128 -0.0171
1708775341.3796 0.131 -0.001 -0.0186 0.131 -0.0186
1708775341.3869 0.133 -0.001 -0.0171 0.133 -0.0171
1708775341.3947 0.135 -0.001 -0.0171 0.135 -0.0171
1708775341.4030 0.138 -0.001 -0.0155 0.138 -0.0155
1708775341.4105 0.143 -0.001 -0.0171 0.143 -0.0171
1708775341.4188 0.146 -0.001 -0.0171 0.146 -0.0171
1708775341.4270 0.148 -0.002 -0.0155 0.148 -0.0155
1708775341.4347 0.151 -0.002 -0.0140 0.151 -0.0140
1708775341.4425 0.154 -0.002 -0.0140 0.154 -0.0140
1708775341.4508 0.158 -0.002 -0.0155 0.158 -0.0155
1708775341.4585 0.161 -0.002 -0.0155 0.161 -0.0155
1708775341.4671 0.164 -0.002 -0.0140 0.164 -0.0140
1708775341.4748 0.167 -0.002 -0.0124 0.167 -0.0124
1708775341.4827 0.171 -0.002 -0.0140 0.171 -0.0140
1708775341.4905 0.173 -0.002 -0.0155 0.174 -0.0155
1708775341.4988 0.176 -0.002 -0.0140 0.176 -0.0140
1708775341.5065 0.179 -0.002 -0.0140 0.179 -0.0140
1708775341.5147 0.183 -0.002 -0.0140 0.184 -0.0140
1708775341.5229 0.187 -0.002 -0.0140 0.187 -0.0140
1708775341.5308 0.189 -0.002 -0.0124 0.189 -0.0124
1708775341.5397 0.192 -0.002 -0.0124 0.192 -0.0124
1708775341.5468 0.196 -0.002 -0.0140 0.196 -0.0140
1708775341.5546 0.200 -0.002 -0.0155 0.200 -0.0155
1708775341.5628 0.202 -0.002 -0.0140 0.202 -0.0140
1708775341.5711 0.205 -0.002 -0.0124 0.205 -0.0124
1708775341.5787 0.208 -0.002 -0.0124 0.208 -0.0124
1708775341.5871 0.212 -0.002 -0.0155 0.212 -0.0155
1708775341.5954 0.215 -0.002 -0.0186 0.215 -0.0186
1708775341.6033 0.218 -0.003 -0.0171 0.218 -0.0171
1708775341.6108 0.221 -0.003 -0.0140 0.221 -0.0140
1708775341.6188 0.225 -0.003 -0.0140 0.225 -0.0140
1708775341.6265 0.228 -0.003 -0.0171 0.228 -0.0171
1708775341.6347 0.231 -0.003 -0.0186 0.231 -0.0186
1708775341.6426 0.234 -0.003 -0.0171 0.234 -0.0171
1708775341.6504 0.237 -0.003 -0.0124 0.237 -0.0124
1708775341.6593 0.241 -0.003 -0.0124 0.241 -0.0124
1708775341.6671 0.244 -0.003 -0.0155 0.244 -0.0155
1708775341.6750 0.247 -0.003 -0.0186 0.247 -0.0186
1708775341.6832 0.251 -0.003 -0.0140 0.251 -0.0140
1708775341.6911 0.254 -0.003 -0.0109 0.254 -0.0109
1708775341.6988 0.257 -0.003 -0.0124 0.257 -0.0124
1708775341.7074 0.260 -0.003 -0.0155 0.260 -0.0155
1708775341.7144 0.264 -0.003 -0.0124 0.264 -0.0124
1708775341.7234 0.267 -0.003 -0.0062 0.267 -0.0062
1708775341.7305 0.269 -0.003 -0.0000 0.269 -0.0000
1708775341.7401 0.272 -0.003 -0.0031 0.272 -0.0031
1708775341.7464 0.276 -0.003 -0.0078 0.276 -0.0078
1708775341.7545 0.279 -0.003 -0.0062 0.280 -0.0062
1708775341.7630 0.282 -0.003 -0.0016 0.282 -0.0016
1708775341.7707 0.285 -0.003 0.0016 0.285 0.0016
1708775341.7790 0.288 -0.003 0.0031 0.288 0.0031
1708775341.7872 0.292 -0.003 0.0016 0.292 0.0016
1708775341.7945 0.295 -0.003 0.0016 0.295 0.0016
1708775341.8025 0.298 -0.003 0.0031 0.298 0.0031
1708775341.8108 0.300 -0.003 0.0078 0.300 0.0078
1708775341.8186 0.303 -0.003 0.0078 0.303 0.0078
1708775341.8268 0.307 -0.003 0.0093 0.307 0.0093
1708775341.8351 0.311 -0.003 0.0109 0.311 0.0109
1708775341.8434 0.313 -0.003 0.0109 0.313 0.0109
1708775341.8505 0.316 -0.003 0.0124 0.316 0.0124
1708775341.8587 0.320 -0.003 0.0124 0.320 0.0124
1708775341.8667 0.323 -0.003 0.0109 0.323 0.0109
1708775341.8753 0.326 -0.003 0.0093 0.326 0.0093
1708775341.8825 0.330 -0.003 0.0124 0.330 0.0124
1708775341.8909 0.333 -0.003 0.0155 0.333 0.0155
1708775341.8992 0.336 -0.003 0.0155 0.336 0.0155
1708775341.9065 0.339 -0.003 0.0124 0.339 0.0124
1708775341.9153 0.342 -0.003 0.0140 0.342 0.0140
1708775341.9235 0.346 -0.003 0.0202 0.346 0.0202
1708775341.9307 0.349 -0.003 0.0217 0.349 0.0217
1708775341.9401 0.352 -0.003 0.0202 0.352 0.0202
1708775341.9472 0.355 -0.003 0.0171 0.355 0.0171
1708775341.9544 0.358 -0.002 0.0186 0.358 0.0186
1708775341.9634 0.362 -0.002 0.0264 0.362 0.0264
1708775341.9705 0.365 -0.002 0.0295 0.365 0.0295
1708775341.9786 0.368 -0.002 0.0295 0.368 0.0295
1708775341.9864 0.371 -0.002 0.0326 0.371 0.0326
1708775341.9953 0.374 -0.002 0.0388 0.374 0.0388
1708775342.0031 0.378 -0.002 0.0435 0.378 0.0435
1708775342.0114 0.381 -0.002 0.0450 0.381 0.0450
1708775342.0185 0.384 -0.002 0.0466 0.384 0.0466
1708775342.0266 0.387 -0.001 0.0512 0.387 0.0512
1708775342.0354 0.390 -0.001 0.0574 0.390 0.0574
1708775342.0427 0.393 -0.001 0.0621 0.393 0.0621
1708775342.0509 0.396 -0.001 0.0652 0.396 0.0652
1708775342.0587 0.399 -0.001 0.0683 0.399 0.0683
1708775342.0669 0.403 -0.000 0.0761 0.403 0.0761
1708775342.0751 0.406 -0.000 0.0838 0.406 0.0838
1708775342.0829 0.409 0.000 0.0869 0.409 0.0869
1708775342.0910 0.413 0.000 0.0900 0.413 0.0900
1708775342.0992 0.416 0.001 0.0962 0.416 0.0962
1708775342.1073 0.418 0.001 0.1056 0.418 0.1056
1708775342.1153 0.422 0.001 0.1149 0.422 0.1149
1708775342.1225 0.425 0.002 0.1195 0.425 0.1195
1708775342.1305 0.428 0.002 0.1273 0.428 0.1273
1708775342.1400 0.431 0.003 0.1350 0.431 0.1350
1708775342.1472 0.434 0.003 0.1459 0.435 0.1459
1708775342.1545 0.438 0.003 0.1521 0.438 0.1521
1708775342.1635 0.441 0.004 0.1568 0.441 0.1568
1708775342.1729 0.443 0.004 0.1661 0.444 0.1661
1708775342.1786 0.447 0.005 0.1801 0.447 0.1801
1708775342.1873 0.450 0.006 0.1894 0.451 0.1894
1708775342.1952 0.453 0.006 0.1894 0.454 0.1894
1708775342.2028 0.456 0.007 0.1925 0.456 0.1925
1708775342.2111 0.459 0.007 0.2049 0.459 0.2049
1708775342.2186 0.462 0.008 0.2173 0.463 0.2173
1708775342.2264 0.465 0.009 0.2235 0.466 0.2235
1708775342.2347 0.468 0.009 0.2282 0.469 0.2282
1708775342.2427 0.471 0.010 0.2313 0.472 0.2313
1708775342.2509 0.474 0.011 0.2406 0.475 0.2406
1708775342.2591 0.478 0.012 0.2515 0.479 0.2515
1708775342.2666 0.481 0.013 0.2561 0.482 0.2561
1708775342.2751 0.484 0.013 0.2577 0.485 0.2577
1708775342.2833 0.487 0.014 0.2623 0.488 0.2623
1708775342.2911 0.490 0.015 0.2732 0.491 0.2732
1708775342.2987 0.493 0.016 0.2841 0.495 0.2841
1708775342.3069 0.496 0.017 0.2872 0.498 0.2872
1708775342.3225 0.499 0.018 0.2887 0.501 0.2887
1708775342.3250 0.502 0.019 0.2949 0.504 0.2949
1708775342.3339 0.505 0.019 0.3073 0.507 0.3073
1708775342.3401 0.506 0.020 0.3120 0.508 0.3120
1708775342.3468 0.507 0.020 0.3136 0.509 0.3136
1708775342.3549 0.510 0.021 0.3182 0.512 0.3182
1708775342.3631 0.514 0.022 0.3275 0.516 0.3275
1708775342.3708 0.516 0.023 0.3399 0.519 0.3399
1708775342.3790 0.519 0.024 0.3493 0.522 0.3493
1708775342.3870 0.521 0.025 0.3555 0.524 0.3555
1708775342.3954 0.524 0.026 0.3679 0.528 0.3679
1708775342.4025 0.527 0.027 0.3803 0.531 0.3803
1708775342.4114 0.530 0.028 0.3896 0.534 0.3896
1708775342.4191 0.532 0.029 0.3989 0.536 0.3989
1708775342.4272 0.535 0.031 0.4145 0.539 0.4145
1708775342.4351 0.538 0.032 0.4269 0.542 0.4269
1708775342.4424 0.541 0.033 0.4377 0.545 0.4377
1708775342.4506 0.544 0.034 0.4486 0.549 0.4486
1708775342.4587 0.546 0.036 0.4610 0.551 0.4610
1708775342.4674 0.549 0.037 0.4765 0.554 0.4765
1708775342.4753 0.551 0.038 0.4874 0.557 0.4874
1708775342.4835 0.555 0.040 0.4998 0.561 0.4998
1708775342.4908 0.558 0.042 0.5138 0.564 0.5138
1708775342.4989 0.560 0.043 0.5293 0.567 0.5293
1708775342.5072 0.563 0.045 0.5417 0.571 0.5417
1708775342.5149 0.566 0.047 0.5557 0.574 0.5557
1708775342.5229 0.569 0.049 0.5712 0.577 0.5712
1708775342.5310 0.571 0.050 0.5852 0.581 0.5852
1708775342.5393 0.574 0.052 0.5945 0.584 0.5945
1708775342.5474 0.577 0.054 0.6038 0.587 0.6038
1708775342.5545 0.579 0.056 0.6162 0.591 0.6162
1708775342.5631 0.582 0.058 0.6302 0.594 0.6302
1708775342.5713 0.584 0.059 0.6411 0.597 0.6411
1708775342.5784 0.587 0.062 0.6488 0.600 0.6488
1708775342.5872 0.590 0.064 0.6551 0.604 0.6551
1708775342.5950 0.592 0.066 0.6628 0.607 0.6628
1708775342.6043 0.595 0.067 0.6721 0.610 0.6721
1708775342.6110 0.597 0.069 0.6799 0.613 0.6799
1708775342.6191 0.600 0.072 0.6845 0.617 0.6845
1708775342.6272 0.602 0.074 0.6892 0.619 0.6892
1708775342.6348 0.604 0.075 0.6939 0.622 0.6939
1708775342.6426 0.607 0.077 0.6985 0.625 0.6985
1708775342.6508 0.610 0.080 0.7063 0.629 0.7063
1708775342.6593 0.612 0.082 0.7140 0.632 0.7140
1708775342.6675 0.614 0.083 0.7140 0.635 0.7140
1708775342.6746 0.616 0.085 0.7125 0.638 0.7125
1708775342.6824 0.619 0.088 0.7156 0.641 0.7156
1708775342.6913 0.621 0.090 0.7218 0.644 0.7218
1708775342.6993 0.624 0.092 0.7234 0.648 0.7234
1708775342.7070 0.626 0.094 0.7218 0.651 0.7218
1708775342.7151 0.629 0.096 0.7202 0.654 0.7202
1708775342.7233 0.631 0.098 0.7265 0.657 0.7265
1708775342.7309 0.633 0.100 0.7327 0.660 0.7327
1708775342.7398 0.636 0.102 0.7358 0.663 0.7358
1708775342.7474 0.638 0.105 0.7327 0.667 0.7327
1708775342.7557 0.641 0.107 0.7280 0.670 0.7280
1708775342.7625 0.643 0.109 0.7311 0.673 0.7311
1708775342.7706 0.645 0.111 0.7358 0.676 0.7358
1708775342.7794 0.647 0.113 0.7389 0.679 0.7389
1708775342.7866 0.650 0.115 0.7389 0.683 0.7389
1708775342.7954 0.653 0.118 0.7389 0.687 0.7389
1708775342.8031 0.655 0.120 0.7435 0.690 0.7435
1708775342.8112 0.657 0.122 0.7513 0.693 0.7513
1708775342.8194 0.659 0.124 0.7544 0.696 0.7544
1708775342.8270 0.662 0.126 0.7544 0.699 0.7544
1708775342.8349 0.664 0.129 0.7575 0.702 0.7575
1708775342.8427 0.666 0.131 0.7637 0.705 0.7637
1708775342.8504 0.668 0.133 0.7699 0.708 0.7699
1708775342.8586 0.671 0.135 0.7761 0.711 0.7761
1708775342.8668 0.673 0.137 0.7777 0.715 0.7777
1708775342.8744 0.676 0.140 0.7870 0.718 0.7870
1708775342.8834 0.678 0.142 0.7963 0.721 0.7963
1708775342.8911 0.679 0.144 0.8056 0.724 0.8056
1708775342.8988 0.682 0.146 0.8103 0.727 0.8103
1708775342.9070 0.685 0.149 0.8165 0.731 0.8165
1708775342.9152 0.686 0.151 0.8242 0.734 0.8242
1708775342.9227 0.688 0.153 0.8382 0.737 0.8382
1708775342.9308 0.690 0.156 0.8460 0.740 0.8460
1708775342.9397 0.693 0.158 0.8522 0.743 0.8522
1708775342.9475 0.695 0.160 0.8646 0.746 0.8646
1708775342.9546 0.697 0.163 0.8786 0.749 0.8786
1708775342.9628 0.699 0.165 0.8910 0.753 0.8910
1708775342.9714 0.701 0.168 0.8972 0.756 0.8972
1708775342.9787 0.703 0.170 0.9081 0.759 0.9081
1708775342.9865 0.705 0.173 0.9251 0.762 0.9251
1708775342.9949 0.707 0.175 0.9376 0.765 0.9376
1708775343.0030 0.708 0.178 0.9422 0.769 0.9422
1708775343.0112 0.711 0.181 0.9500 0.772 0.9500
1708775343.0186 0.712 0.183 0.9640 0.775 0.9640
1708775343.0267 0.714 0.186 0.9764 0.778 0.9764
1708775343.0349 0.716 0.189 0.9826 0.782 0.9826
1708775343.0433 0.718 0.191 0.9903 0.785 0.9903
1708775343.0514 0.720 0.194 0.9997 0.788 0.9997
1708775343.0594 0.721 0.197 1.0136 0.792 1.0136
1708775343.0672 0.723 0.199 1.0214 0.794 1.0214
1708775343.0752 0.724 0.202 1.0260 0.798 1.0260
1708775343.0946 0.726 0.205 1.0323 0.801 1.0322
1708775343.0978 0.728 0.208 1.0416 0.804 1.0416
1708775343.1002 0.730 0.211 1.0524 0.808 1.0524
1708775343.1068 0.731 0.214 1.0617 0.811 1.0617
1708775343.1147 0.732 0.214 1.0680 0.812 1.0680
1708775343.1231 0.732 0.215 1.0680 0.813 1.0680
1708775343.1308 0.733 0.218 1.0648 0.816 1.0648
1708775343.1394 0.735 0.221 1.0648 0.819 1.0648
1708775343.1465 0.737 0.223 1.0726 0.822 1.0726
1708775343.1548 0.738 0.225 1.0819 0.824 1.0819
1708775343.1627 0.739 0.227 1.0866 0.826 1.0866
1708775343.1711 0.740 0.230 1.0881 0.829 1.0881
1708775343.1788 0.741 0.233 1.0897 0.832 1.0897
1708775343.1871 0.743 0.235 1.0974 0.836 1.0974
1708775343.1951 0.744 0.238 1.1052 0.838 1.1052
1708775343.2033 0.745 0.240 1.1068 0.841 1.1068
1708775343.2110 0.746 0.242 1.1114 0.843 1.1114
1708775343.2193 0.748 0.245 1.1161 0.847 1.1161
1708775343.2266 0.749 0.248 1.1223 0.849 1.1223
1708775343.2350 0.750 0.250 1.1269 0.852 1.1269
1708775343.2426 0.751 0.252 1.1347 0.855 1.1347
1708775343.2507 0.753 0.255 1.1394 0.858 1.1394
1708775343.2585 0.754 0.258 1.1440 0.861 1.1440
1708775343.2668 0.755 0.260 1.1518 0.863 1.1518
1708775343.2752 0.756 0.263 1.1611 0.866 1.1611
1708775343.2830 0.757 0.266 1.1657 0.870 1.1657
1708775343.2910 0.759 0.269 1.1688 0.873 1.1688
1708775343.2993 0.760 0.272 1.1782 0.876 1.1782
1708775343.3071 0.761 0.275 1.1906 0.879 1.1906
1708775343.3153 0.762 0.278 1.1999 0.882 1.1999
1708775343.3226 0.763 0.280 1.2030 0.885 1.2030
1708775343.3314 0.764 0.284 1.2092 0.888 1.2092
1708775343.3393 0.766 0.287 1.2216 0.892 1.2216
1708775343.3469 0.767 0.290 1.2325 0.895 1.2325
1708775343.3554 0.768 0.293 1.2371 0.898 1.2371
1708775343.3626 0.769 0.296 1.2403 0.901 1.2403
1708775343.3706 0.770 0.299 1.2465 0.905 1.2465
1708775343.3794 0.771 0.302 1.2558 0.908 1.2558
1708775343.3866 0.772 0.305 1.2620 0.911 1.2620
1708775343.3945 0.773 0.309 1.2651 0.915 1.2651
1708775343.4034 0.774 0.311 1.2682 0.918 1.2682
1708775343.4106 0.775 0.314 1.2760 0.921 1.2760
1708775343.4188 0.776 0.317 1.2837 0.924 1.2837
1708775343.4271 0.777 0.320 1.2837 0.927 1.2837
1708775343.4354 0.777 0.324 1.2837 0.931 1.2837
1708775343.4433 0.778 0.327 1.2884 0.934 1.2884
1708775343.4504 0.779 0.330 1.2961 0.937 1.2961
1708775343.4587 0.780 0.332 1.2977 0.940 1.2977
1708775343.4671 0.781 0.335 1.2946 0.943 1.2946
1708775343.4748 0.782 0.338 1.2961 0.946 1.2961
1708775343.4835 0.783 0.342 1.3023 0.949 1.3023
1708775343.4914 0.783 0.345 1.3023 0.953 1.3023
1708775343.4988 0.784 0.348 1.3008 0.956 1.3008
1708775343.5071 0.785 0.351 1.2992 0.959 1.2992
1708775343.5154 0.786 0.353 1.3023 0.961 1.3023
1708775343.5227 0.787 0.356 1.3054 0.965 1.3054
1708775343.5312 0.788 0.360 1.3023 0.968 1.3023
1708775343.5392 0.788 0.363 1.3023 0.971 1.3023
1708775343.5469 0.789 0.365 1.3023 0.974 1.3023
1708775343.5550 0.790 0.369 1.3039 0.977 1.3039
1708775343.5633 0.791 0.372 1.3054 0.981 1.3054
1708775343.5712 0.792 0.376 1.3070 0.984 1.3070
1708775343.5794 0.793 0.378 1.3070 0.987 1.3070
1708775343.5867 0.793 0.381 1.3039 0.990 1.3039
1708775343.5953 0.794 0.384 1.3039 0.994 1.3039
1708775343.6034 0.795 0.388 1.3054 0.997 1.3054
1708775343.6112 0.796 0.391 1.3054 1.001 1.3054
1708775343.6190 0.797 0.394 1.3039 1.004 1.3039
1708775343.6273 0.798 0.397 1.3008 1.007 1.3008
1708775343.6346 0.799 0.400 1.3039 1.010 1.3039
1708775343.6430 0.799 0.403 1.3054 1.013 1.3054
1708775343.6513 0.800 0.406 1.3054 1.016 1.3054
1708775343.6585 0.801 0.410 1.2992 1.020 1.2992
1708775343.6675 0.802 0.413 1.3008 1.023 1.3008
1708775343.6747 0.803 0.416 1.3054 1.026 1.3054
1708775343.6831 0.804 0.418 1.3070 1.029 1.3070
1708775343.6904 0.804 0.422 1.3039 1.032 1.3039
1708775343.6987 0.805 0.425 1.3008 1.036 1.3008
1708775343.7071 0.806 0.428 1.3023 1.039 1.3023
1708775343.7148 0.807 0.430 1.3039 1.041 1.3039
1708775343.7230 0.808 0.434 1.3054 1.045 1.3054
1708775343.7309 0.809 0.437 1.3054 1.048 1.3054
1708775343.7393 0.810 0.440 1.3039 1.052 1.3039
1708775343.7471 0.810 0.443 1.3086 1.054 1.3086
1708775343.7554 0.811 0.446 1.3117 1.057 1.3117
1708775343.7633 0.812 0.449 1.3117 1.061 1.3117
1708775343.7705 0.813 0.452 1.3117 1.064 1.3117
1708775343.7787 0.813 0.455 1.3148 1.067 1.3148
1708775343.7871 0.814 0.458 1.3194 1.070 1.3194
1708775343.7954 0.815 0.462 1.3256 1.074 1.3256
1708775343.8030 0.816 0.464 1.3287 1.077 1.3287
1708775343.8113 0.817 0.467 1.3318 1.080 1.3318
1708775343.8186 0.817 0.471 1.3365 1.083 1.3365
1708775343.8279 0.818 0.474 1.3380 1.086 1.3380
1708775343.8347 0.819 0.476 1.3412 1.089 1.3411
1708775343.8429 0.819 0.479 1.3474 1.092 1.3474
1708775343.8515 0.820 0.483 1.3520 1.096 1.3520
1708775343.8585 0.821 0.486 1.3567 1.099 1.3567
1708775343.8671 0.822 0.489 1.3582 1.102 1.3582
1708775343.8745 0.822 0.492 1.3629 1.105 1.3629
1708775343.8827 0.823 0.495 1.3675 1.108 1.3675
1708775343.8911 0.824 0.498 1.3706 1.111 1.3706
1708775343.8985 0.824 0.502 1.3722 1.115 1.3722
1708775343.9065 0.825 0.505 1.3769 1.118 1.3769
1708775343.9149 0.825 0.508 1.3831 1.121 1.3831
1708775343.9234 0.826 0.511 1.3862 1.124 1.3862
1708775343.9305 0.827 0.514 1.3893 1.128 1.3893
1708775343.9397 0.827 0.518 1.3939 1.131 1.3939
1708775343.9469 0.828 0.521 1.4001 1.134 1.4001
1708775343.9549 0.828 0.524 1.4063 1.137 1.4063
1708775343.9632 0.829 0.527 1.4126 1.141 1.4126
1708775343.9707 0.829 0.530 1.4172 1.144 1.4172
1708775343.9787 0.830 0.534 1.4250 1.147 1.4250
1708775343.9873 0.830 0.537 1.4327 1.150 1.4327
1708775343.9953 0.831 0.540 1.4389 1.153 1.4389
1708775344.0030 0.831 0.543 1.4498 1.156 1.4498
1708775344.0115 0.831 0.546 1.4591 1.160 1.4591
1708775344.0210 0.832 0.549 1.4684 1.163 1.4684
1708775344.0267 0.832 0.552 1.4762 1.166 1.4762
1708775344.0346 0.832 0.556 1.4871 1.169 1.4871
1708775344.0425 0.833 0.558 1.4948 1.172 1.4948
1708775344.0513 0.833 0.561 1.5041 1.175 1.5041
1708775344.0595 0.833 0.565 1.5135 1.179 1.5134
1708775344.0666 0.833 0.568 1.5259 1.182 1.5259
1708775344.0754 0.833 0.571 1.5383 1.185 1.5383
1708775344.0835 0.833 0.574 1.5492 1.188 1.5492
1708775344.0914 0.833 0.578 1.5600 1.191 1.5600
1708775344.0989 0.833 0.581 1.5693 1.195 1.5693
1708775344.1070 0.833 0.584 1.5833 1.198 1.5833
1708775344.1153 0.833 0.587 1.5988 1.201 1.5988
1708775344.1230 0.833 0.590 1.6097 1.204 1.6097
