% Pose without folding and reset (log_20240219_140507.257/log_pose_abs.txt)
% 1 	Time (sec)
% 2,3 	Position x,y (m)
% 4 	heading (rad)
% 5 	Driven distance (m) - signed
% 6 	Turned angle (rad) - signed
1708347907.4587 0.000 0.000 0.0000 0.000 0.0000
1708347907.4676 0.000 0.000 0.0000 0.000 0.0000
1708347907.4746 0.000 0.000 0.0000 0.000 0.0000
1708347907.4823 0.000 0.000 0.0000 0.000 0.0000
1708347907.4919 0.000 0.000 0.0000 0.000 0.0000
1708347907.4985 0.000 0.000 0.0000 0.000 0.0000
1708347907.5066 0.000 0.000 0.0000 0.000 0.0000
1708347907.5156 0.000 0.000 0.0000 0.000 0.0000
1708347907.5231 0.000 0.000 0.0000 0.000 0.0000
1708347907.5307 0.000 0.000 0.0000 0.000 0.0000
1708347907.5416 0.000 0.000 0.0000 0.000 0.0000
1708347907.5507 0.000 0.000 0.0000 0.000 0.0000
1708347907.5544 0.000 0.000 0.0000 0.000 0.0000
1708347907.5648 0.000 0.000 0.0000 0.000 0.0000
1708347907.5709 0.000 0.000 0.0000 0.000 0.0000
1708347907.5792 0.000 0.000 0.0000 0.000 0.0000
1708347907.5913 0.000 0.000 0.0000 0.000 0.0000
1708347907.5955 0.000 0.000 0.0031 0.000 0.0031
1708347907.6037 0.001 0.000 -0.0016 0.001 -0.0016
1708347907.6113 0.002 -0.000 -0.0031 0.002 -0.0031
1708347907.6196 0.003 -0.000 -0.0031 0.003 -0.0031
1708347907.6275 0.004 -0.000 -0.0031 0.004 -0.0031
1708347907.6358 0.005 -0.000 -0.0000 0.005 -0.0000
1708347907.6439 0.007 -0.000 -0.0000 0.007 -0.0000
1708347907.6516 0.008 -0.000 -0.0000 0.008 -0.0000
1708347907.6593 0.010 -0.000 0.0016 0.010 0.0016
1708347907.6749 0.014 -0.000 0.0016 0.014 0.0016
1708347907.6838 0.016 0.000 0.0016 0.016 0.0016
1708347907.6915 0.019 0.000 0.0031 0.019 0.0031
1708347907.6995 0.021 0.000 0.0047 0.021 0.0047
1708347907.7073 0.023 0.000 0.0031 0.023 0.0031
1708347907.7151 0.026 0.000 -0.0000 0.026 -0.0000
1708347907.7246 0.028 0.000 0.0016 0.028 0.0016
1708347907.7324 0.031 0.000 0.0047 0.031 0.0047
1708347907.7391 0.034 0.000 0.0047 0.034 0.0047
1708347907.7511 0.036 0.000 0.0031 0.036 0.0031
1708347907.7564 0.038 0.000 0.0031 0.038 0.0031
1708347907.7632 0.040 0.000 0.0031 0.040 0.0031
1708347907.7712 0.043 0.000 0.0062 0.043 0.0062
1708347907.7796 0.046 0.000 0.0062 0.046 0.0062
1708347907.7876 0.048 0.000 0.0031 0.048 0.0031
1708347907.7958 0.050 0.000 -0.0000 0.050 -0.0000
1708347907.8037 0.053 0.000 0.0031 0.053 0.0031
1708347907.8116 0.056 0.000 0.0078 0.056 0.0078
1708347907.8193 0.058 0.000 0.0062 0.058 0.0062
1708347907.8276 0.060 0.000 -0.0000 0.060 -0.0000
1708347907.8348 0.063 0.000 -0.0031 0.063 -0.0031
1708347907.8440 0.065 0.000 -0.0000 0.065 -0.0000
1708347907.8509 0.067 0.000 0.0047 0.067 0.0047
1708347907.8596 0.070 0.000 0.0062 0.070 0.0062
1708347907.8669 0.072 0.000 -0.0000 0.072 -0.0000
1708347907.8754 0.074 0.000 -0.0047 0.074 -0.0047
1708347907.8832 0.077 0.000 -0.0031 0.077 -0.0031
1708347907.8928 0.079 0.000 0.0031 0.079 0.0031
1708347907.9006 0.082 0.000 0.0047 0.082 0.0047
1708347907.9086 0.085 0.000 -0.0016 0.085 -0.0016
1708347907.9148 0.087 0.000 -0.0062 0.087 -0.0062
1708347907.9235 0.089 0.000 -0.0047 0.089 -0.0047
1708347907.9317 0.091 0.000 0.0016 0.091 0.0016
1708347907.9398 0.094 0.000 0.0062 0.094 0.0062
1708347907.9469 0.096 0.000 0.0031 0.096 0.0031
1708347907.9549 0.099 0.000 -0.0016 0.099 -0.0016
1708347907.9648 0.101 0.000 -0.0016 0.101 -0.0016
1708347907.9710 0.102 0.000 0.0016 0.102 0.0016
1708347907.9791 0.105 0.000 0.0062 0.105 0.0062
1708347907.9876 0.108 0.000 0.0047 0.108 0.0047
1708347907.9958 0.110 0.000 -0.0016 0.110 -0.0016
1708347908.0035 0.113 0.000 -0.0016 0.113 -0.0016
1708347908.0110 0.115 0.000 0.0031 0.115 0.0031
1708347908.0198 0.117 0.000 0.0047 0.117 0.0047
1708347908.0270 0.120 0.000 -0.0000 0.120 -0.0000
1708347908.0393 0.122 0.000 -0.0047 0.122 -0.0047
1708347908.0431 0.124 0.000 -0.0031 0.124 -0.0031
1708347908.0514 0.126 0.000 0.0031 0.126 0.0031
1708347908.0597 0.128 0.000 0.0047 0.128 0.0047
1708347908.0669 0.130 0.000 0.0016 0.130 0.0016
1708347908.0751 0.133 0.000 -0.0031 0.133 -0.0031
1708347908.0872 0.135 0.000 -0.0031 0.135 -0.0031
1708347908.0922 0.138 0.000 0.0031 0.138 0.0031
1708347908.1033 0.140 0.000 0.0062 0.140 0.0062
1708347908.1076 0.142 0.000 0.0031 0.142 0.0031
1708347908.1156 0.144 0.000 -0.0000 0.144 -0.0000
1708347908.1238 0.146 0.000 -0.0016 0.146 -0.0016
1708347908.1309 0.148 0.000 0.0016 0.148 0.0016
1708347908.1390 0.150 0.000 0.0016 0.150 0.0016
1708347908.1478 0.153 0.000 -0.0000 0.153 -0.0000
1708347908.1556 0.155 0.000 -0.0016 0.155 -0.0016
1708347908.1635 0.157 0.000 -0.0000 0.157 -0.0000
1708347908.1713 0.159 0.000 -0.0000 0.159 -0.0000
1708347908.1791 0.162 0.000 -0.0016 0.162 -0.0016
1708347908.1869 0.164 0.000 -0.0016 0.164 -0.0016
1708347908.1955 0.166 0.000 -0.0016 0.166 -0.0016
1708347908.2033 0.168 0.000 -0.0000 0.168 -0.0000
1708347908.2112 0.171 0.000 -0.0016 0.171 -0.0016
1708347908.2195 0.174 0.000 -0.0031 0.174 -0.0031
1708347908.2274 0.176 0.000 -0.0016 0.176 -0.0016
1708347908.2352 0.178 0.000 -0.0000 0.178 -0.0000
1708347908.2437 0.181 0.000 -0.0000 0.181 -0.0000
1708347908.2515 0.183 0.000 -0.0031 0.183 -0.0031
1708347908.2593 0.185 0.000 -0.0047 0.185 -0.0047
1708347908.2670 0.187 0.000 -0.0031 0.187 -0.0031
1708347908.2749 0.190 0.000 -0.0031 0.190 -0.0031
1708347908.2837 0.193 0.000 -0.0016 0.193 -0.0016
1708347908.2915 0.195 0.000 -0.0016 0.195 -0.0016
1708347908.3052 0.197 0.000 -0.0031 0.197 -0.0031
1708347908.3126 0.199 0.000 -0.0047 0.199 -0.0047
1708347908.3156 0.202 0.000 -0.0062 0.202 -0.0062
1708347908.3232 0.205 0.000 -0.0047 0.205 -0.0047
1708347908.3308 0.208 0.000 -0.0016 0.208 -0.0016
1708347908.3388 0.209 0.000 -0.0000 0.209 -0.0000
1708347908.3488 0.211 0.000 -0.0047 0.211 -0.0047
1708347908.3588 0.213 0.000 -0.0078 0.213 -0.0078
1708347908.3633 0.216 0.000 -0.0062 0.216 -0.0062
1708347908.3717 0.219 0.000 -0.0000 0.219 -0.0000
1708347908.3792 0.220 0.000 0.0016 0.220 0.0016
1708347908.3868 0.221 0.000 -0.0062 0.221 -0.0062
1708347908.3948 0.224 0.000 -0.0062 0.224 -0.0062
1708347908.4029 0.226 0.000 -0.0031 0.226 -0.0031
1708347908.4117 0.228 0.000 -0.0000 0.228 -0.0000
1708347908.4188 0.230 0.000 -0.0000 0.230 -0.0000
1708347908.4269 0.232 0.000 -0.0000 0.232 -0.0000
1708347908.4356 0.234 0.000 -0.0016 0.234 -0.0016
1708347908.4434 0.237 0.000 -0.0016 0.237 -0.0016
1708347908.4511 0.239 0.000 0.0016 0.239 0.0016
1708347908.4598 0.241 0.000 -0.0000 0.241 -0.0000
1708347908.4669 0.243 0.000 0.0016 0.243 0.0016
1708347908.4758 0.245 0.000 0.0031 0.245 0.0031
1708347908.4834 0.247 0.000 -0.0000 0.247 -0.0000
1708347908.4912 0.250 0.000 -0.0016 0.250 -0.0016
1708347908.4989 0.252 0.000 0.0016 0.252 0.0016
1708347908.5077 0.254 0.000 0.0016 0.254 0.0016
1708347908.5214 0.257 0.000 -0.0016 0.257 -0.0016
1708347908.5243 0.259 0.000 -0.0031 0.259 -0.0031
1708347908.5335 0.262 0.000 0.0016 0.262 0.0016
1708347908.5400 0.263 0.000 0.0047 0.263 0.0047
1708347908.5478 0.265 0.000 0.0047 0.265 0.0047
1708347908.5561 0.267 0.000 0.0016 0.267 0.0016
1708347908.5638 0.270 0.000 0.0031 0.270 0.0031
1708347908.5717 0.273 0.000 0.0031 0.273 0.0031
1708347908.5805 0.275 0.000 0.0047 0.275 0.0047
1708347908.5872 0.276 0.000 0.0062 0.276 0.0062
1708347908.5952 0.279 0.000 0.0047 0.279 0.0047
1708347908.6029 0.281 0.000 0.0031 0.281 0.0031
1708347908.6109 0.284 0.000 0.0031 0.284 0.0031
1708347908.6198 0.286 0.000 0.0047 0.286 0.0047
1708347908.6277 0.287 0.000 0.0016 0.287 0.0016
1708347908.6353 0.289 0.000 -0.0016 0.289 -0.0016
1708347908.6465 0.293 0.000 -0.0016 0.293 -0.0016
1708347908.6519 0.295 0.000 -0.0000 0.295 -0.0000
1708347908.6590 0.297 0.000 -0.0016 0.297 -0.0016
1708347908.6668 0.299 0.000 -0.0062 0.299 -0.0062
1708347908.6751 0.301 0.000 -0.0124 0.301 -0.0124
1708347908.6835 0.303 0.000 -0.0140 0.303 -0.0140
1708347908.6919 0.306 0.000 -0.0124 0.306 -0.0124
1708347908.6997 0.308 -0.000 -0.0155 0.308 -0.0155
1708347908.7068 0.310 -0.000 -0.0233 0.310 -0.0233
1708347908.7159 0.312 -0.000 -0.0279 0.312 -0.0279
1708347908.7234 0.315 -0.000 -0.0326 0.315 -0.0326
1708347908.7315 0.317 -0.000 -0.0357 0.317 -0.0357
1708347908.7390 0.320 -0.000 -0.0419 0.320 -0.0419
1708347908.7472 0.322 -0.000 -0.0497 0.322 -0.0497
1708347908.7554 0.324 -0.001 -0.0590 0.324 -0.0590
1708347908.7635 0.327 -0.001 -0.0636 0.327 -0.0636
1708347908.7708 0.330 -0.001 -0.0683 0.330 -0.0683
1708347908.7797 0.332 -0.001 -0.0776 0.332 -0.0776
1708347908.7878 0.334 -0.001 -0.0869 0.334 -0.0869
1708347908.7956 0.337 -0.002 -0.0962 0.337 -0.0962
1708347908.8038 0.339 -0.002 -0.1024 0.339 -0.1024
1708347908.8108 0.342 -0.002 -0.1087 0.342 -0.1087
1708347908.8191 0.344 -0.002 -0.1195 0.344 -0.1195
1708347908.8270 0.346 -0.003 -0.1288 0.346 -0.1288
1708347908.8349 0.349 -0.003 -0.1366 0.349 -0.1366
1708347908.8437 0.351 -0.003 -0.1444 0.351 -0.1444
1708347908.8517 0.353 -0.004 -0.1521 0.353 -0.1521
1708347908.8597 0.356 -0.004 -0.1630 0.356 -0.1630
1708347908.8671 0.359 -0.004 -0.1723 0.359 -0.1723
1708347908.8749 0.360 -0.005 -0.1801 0.361 -0.1801
1708347908.8830 0.362 -0.005 -0.1863 0.362 -0.1863
1708347908.8918 0.365 -0.006 -0.1925 0.365 -0.1925
1708347908.8998 0.368 -0.006 -0.2033 0.368 -0.2033
1708347908.9082 0.370 -0.007 -0.2173 0.371 -0.2173
1708347908.9158 0.372 -0.007 -0.2282 0.373 -0.2282
1708347908.9236 0.374 -0.008 -0.2344 0.375 -0.2344
1708347908.9316 0.377 -0.008 -0.2390 0.377 -0.2390
1708347908.9393 0.379 -0.009 -0.2499 0.380 -0.2499
1708347908.9475 0.382 -0.009 -0.2639 0.382 -0.2639
1708347908.9555 0.383 -0.010 -0.2732 0.384 -0.2732
1708347908.9631 0.385 -0.011 -0.2779 0.386 -0.2779
1708347908.9708 0.388 -0.011 -0.2856 0.389 -0.2856
1708347908.9794 0.391 -0.012 -0.2980 0.392 -0.2980
1708347908.9871 0.393 -0.013 -0.3073 0.394 -0.3073
1708347908.9956 0.395 -0.013 -0.3151 0.396 -0.3151
1708347909.0038 0.397 -0.014 -0.3244 0.399 -0.3244
1708347909.0116 0.400 -0.015 -0.3306 0.402 -0.3306
1708347909.0195 0.402 -0.016 -0.3399 0.404 -0.3399
1708347909.0276 0.404 -0.017 -0.3493 0.406 -0.3493
1708347909.0354 0.406 -0.017 -0.3586 0.408 -0.3586
1708347909.0434 0.409 -0.018 -0.3679 0.411 -0.3679
1708347909.0513 0.411 -0.019 -0.3756 0.414 -0.3756
1708347909.0590 0.413 -0.020 -0.3834 0.415 -0.3834
1708347909.0669 0.415 -0.021 -0.3912 0.418 -0.3912
1708347909.0751 0.417 -0.022 -0.3989 0.420 -0.3989
1708347909.0833 0.420 -0.023 -0.4067 0.423 -0.4067
1708347909.0915 0.422 -0.024 -0.4176 0.425 -0.4176
1708347909.0997 0.424 -0.024 -0.4253 0.427 -0.4253
1708347909.1074 0.426 -0.026 -0.4315 0.430 -0.4315
1708347909.1154 0.429 -0.027 -0.4393 0.433 -0.4393
1708347909.1236 0.431 -0.028 -0.4470 0.435 -0.4470
1708347909.1315 0.432 -0.029 -0.4533 0.437 -0.4533
1708347909.1396 0.435 -0.030 -0.4610 0.439 -0.4610
1708347909.1470 0.437 -0.031 -0.4703 0.442 -0.4703
1708347909.1549 0.439 -0.032 -0.4781 0.445 -0.4781
1708347909.1630 0.441 -0.033 -0.4843 0.446 -0.4843
1708347909.1712 0.443 -0.034 -0.4921 0.448 -0.4921
1708347909.1790 0.445 -0.035 -0.4998 0.451 -0.4998
1708347909.1872 0.448 -0.037 -0.5091 0.454 -0.5091
1708347909.1954 0.450 -0.038 -0.5153 0.456 -0.5153
1708347909.2036 0.451 -0.039 -0.5216 0.458 -0.5216
1708347909.2110 0.453 -0.040 -0.5278 0.460 -0.5278
1708347909.2199 0.456 -0.041 -0.5340 0.463 -0.5340
1708347909.2278 0.458 -0.043 -0.5402 0.466 -0.5402
1708347909.2358 0.460 -0.044 -0.5479 0.468 -0.5479
1708347909.2438 0.461 -0.045 -0.5542 0.470 -0.5542
1708347909.2516 0.463 -0.046 -0.5588 0.472 -0.5588
1708347909.2597 0.466 -0.048 -0.5635 0.475 -0.5635
1708347909.2676 0.468 -0.049 -0.5712 0.478 -0.5712
1708347909.2757 0.470 -0.050 -0.5743 0.480 -0.5743
1708347909.2838 0.472 -0.051 -0.5805 0.482 -0.5805
1708347909.2917 0.474 -0.053 -0.5868 0.485 -0.5868
1708347909.2994 0.477 -0.054 -0.5914 0.488 -0.5914
1708347909.3075 0.478 -0.056 -0.5945 0.490 -0.5945
1708347909.3162 0.480 -0.057 -0.5992 0.492 -0.5992
1708347909.3237 0.482 -0.058 -0.6038 0.494 -0.6038
1708347909.3317 0.484 -0.060 -0.6100 0.497 -0.6100
1708347909.3399 0.486 -0.061 -0.6131 0.500 -0.6131
1708347909.3470 0.488 -0.062 -0.6178 0.501 -0.6178
1708347909.3555 0.489 -0.063 -0.6194 0.503 -0.6193
1708347909.3645 0.492 -0.065 -0.6225 0.506 -0.6225
1708347909.3710 0.494 -0.067 -0.6271 0.509 -0.6271
1708347909.3790 0.496 -0.068 -0.6333 0.511 -0.6333
1708347909.3874 0.497 -0.069 -0.6364 0.513 -0.6364
1708347909.3952 0.499 -0.070 -0.6364 0.515 -0.6364
1708347909.4035 0.501 -0.072 -0.6380 0.518 -0.6380
1708347909.4119 0.503 -0.074 -0.6426 0.521 -0.6426
1708347909.4193 0.505 -0.075 -0.6488 0.523 -0.6488
1708347909.4272 0.507 -0.076 -0.6488 0.525 -0.6488
1708347909.4354 0.509 -0.078 -0.6473 0.528 -0.6473
1708347909.4432 0.511 -0.079 -0.6473 0.530 -0.6473
1708347909.4510 0.513 -0.081 -0.6535 0.533 -0.6535
1708347909.4593 0.514 -0.082 -0.6582 0.535 -0.6582
1708347909.4668 0.516 -0.083 -0.6597 0.537 -0.6597
1708347909.4754 0.518 -0.085 -0.6597 0.540 -0.6597
1708347909.4832 0.521 -0.087 -0.6628 0.543 -0.6628
1708347909.4910 0.523 -0.088 -0.6675 0.545 -0.6675
1708347909.4992 0.524 -0.089 -0.6690 0.547 -0.6690
1708347909.5075 0.525 -0.091 -0.6675 0.549 -0.6675
1708347909.5148 0.527 -0.092 -0.6659 0.551 -0.6659
1708347909.5232 0.530 -0.094 -0.6690 0.554 -0.6690
1708347909.5315 0.532 -0.096 -0.6737 0.557 -0.6737
1708347909.5393 0.533 -0.097 -0.6768 0.559 -0.6768
1708347909.5475 0.535 -0.098 -0.6737 0.561 -0.6737
1708347909.5556 0.537 -0.100 -0.6706 0.564 -0.6706
1708347909.5633 0.539 -0.101 -0.6752 0.566 -0.6752
1708347909.5711 0.541 -0.103 -0.6799 0.568 -0.6799
1708347909.5791 0.543 -0.104 -0.6799 0.571 -0.6799
1708347909.5869 0.545 -0.106 -0.6752 0.573 -0.6752
1708347909.5950 0.546 -0.107 -0.6721 0.575 -0.6721
1708347909.6030 0.548 -0.109 -0.6752 0.578 -0.6752
1708347909.6108 0.550 -0.110 -0.6737 0.580 -0.6737
1708347909.6194 0.552 -0.112 -0.6706 0.582 -0.6706
1708347909.6277 0.554 -0.113 -0.6706 0.585 -0.6706
1708347909.6348 0.556 -0.115 -0.6737 0.588 -0.6737
1708347909.6432 0.558 -0.116 -0.6737 0.590 -0.6737
1708347909.6513 0.560 -0.118 -0.6690 0.592 -0.6690
1708347909.6591 0.561 -0.119 -0.6675 0.595 -0.6675
1708347909.6671 0.563 -0.121 -0.6690 0.597 -0.6690
1708347909.6755 0.565 -0.122 -0.6721 0.600 -0.6721
1708347909.6833 0.567 -0.124 -0.6706 0.602 -0.6706
1708347909.6915 0.569 -0.125 -0.6628 0.604 -0.6628
1708347909.6996 0.571 -0.127 -0.6613 0.607 -0.6613
1708347909.7078 0.573 -0.128 -0.6644 0.610 -0.6644
1708347909.7158 0.575 -0.130 -0.6644 0.612 -0.6644
1708347909.7251 0.577 -0.131 -0.6613 0.614 -0.6613
1708347909.7311 0.579 -0.133 -0.6566 0.617 -0.6566
1708347909.7391 0.581 -0.135 -0.6535 0.620 -0.6535
1708347909.7477 0.582 -0.136 -0.6535 0.621 -0.6535
1708347909.7556 0.584 -0.137 -0.6597 0.623 -0.6597
1708347909.7629 0.586 -0.138 -0.6582 0.626 -0.6582
1708347909.7714 0.588 -0.140 -0.6535 0.629 -0.6535
1708347909.7798 0.590 -0.142 -0.6488 0.631 -0.6488
1708347909.7870 0.592 -0.143 -0.6488 0.633 -0.6488
1708347909.7956 0.594 -0.144 -0.6519 0.636 -0.6519
1708347909.8033 0.596 -0.146 -0.6535 0.638 -0.6535
1708347909.8115 0.598 -0.147 -0.6519 0.640 -0.6519
1708347909.8193 0.599 -0.149 -0.6488 0.643 -0.6488
1708347909.8273 0.601 -0.150 -0.6473 0.645 -0.6473
1708347909.8354 0.603 -0.151 -0.6504 0.647 -0.6504
1708347909.8435 0.605 -0.153 -0.6535 0.650 -0.6535
1708347909.8512 0.607 -0.154 -0.6504 0.652 -0.6504
1708347909.8593 0.609 -0.156 -0.6473 0.655 -0.6473
1708347909.8671 0.611 -0.157 -0.6488 0.657 -0.6488
1708347909.8753 0.612 -0.159 -0.6504 0.659 -0.6504
1708347909.8832 0.614 -0.160 -0.6488 0.661 -0.6488
1708347909.8913 0.616 -0.161 -0.6473 0.664 -0.6473
1708347909.8991 0.618 -0.163 -0.6473 0.667 -0.6473
1708347909.9069 0.620 -0.165 -0.6488 0.669 -0.6488
1708347909.9157 0.622 -0.166 -0.6473 0.671 -0.6473
1708347909.9229 0.623 -0.167 -0.6457 0.673 -0.6457
1708347909.9314 0.626 -0.169 -0.6442 0.676 -0.6442
1708347909.9395 0.628 -0.170 -0.6457 0.679 -0.6457
1708347909.9472 0.630 -0.172 -0.6488 0.681 -0.6488
1708347909.9549 0.631 -0.173 -0.6504 0.683 -0.6504
1708347909.9634 0.633 -0.174 -0.6473 0.685 -0.6473
1708347909.9708 0.635 -0.176 -0.6442 0.688 -0.6442
1708347909.9789 0.637 -0.177 -0.6442 0.690 -0.6442
1708347909.9870 0.639 -0.179 -0.6457 0.693 -0.6457
1708347909.9949 0.641 -0.180 -0.6457 0.695 -0.6457
1708347910.0031 0.643 -0.181 -0.6426 0.697 -0.6426
1708347910.0112 0.645 -0.183 -0.6395 0.700 -0.6395
1708347910.0197 0.647 -0.185 -0.6426 0.702 -0.6426
1708347910.0269 0.649 -0.186 -0.6457 0.705 -0.6457
1708347910.0350 0.651 -0.187 -0.6442 0.707 -0.6442
1708347910.0434 0.652 -0.189 -0.6364 0.709 -0.6364
1708347910.0513 0.654 -0.190 -0.6333 0.712 -0.6333
1708347910.0597 0.656 -0.191 -0.6364 0.714 -0.6364
1708347910.0670 0.658 -0.193 -0.6395 0.716 -0.6395
1708347910.0751 0.660 -0.194 -0.6349 0.719 -0.6349
1708347910.0842 0.662 -0.196 -0.6287 0.721 -0.6287
1708347910.0908 0.664 -0.197 -0.6271 0.723 -0.6271
1708347910.0989 0.666 -0.198 -0.6302 0.726 -0.6302
1708347910.1070 0.668 -0.200 -0.6302 0.728 -0.6302
1708347910.1156 0.669 -0.201 -0.6240 0.730 -0.6240
1708347910.1238 0.672 -0.203 -0.6209 0.733 -0.6209
1708347910.1309 0.674 -0.204 -0.6225 0.736 -0.6225
1708347910.1398 0.676 -0.206 -0.6256 0.738 -0.6256
1708347910.1470 0.677 -0.207 -0.6209 0.740 -0.6209
1708347910.1550 0.679 -0.208 -0.6116 0.742 -0.6116
1708347910.1631 0.681 -0.210 -0.6100 0.745 -0.6100
1708347910.1710 0.683 -0.211 -0.6131 0.747 -0.6131
1708347910.1792 0.686 -0.213 -0.6131 0.750 -0.6131
1708347910.1873 0.687 -0.214 -0.6069 0.752 -0.6069
1708347910.1956 0.689 -0.215 -0.5992 0.754 -0.5992
1708347910.2028 0.691 -0.216 -0.5992 0.757 -0.5992
1708347910.2117 0.693 -0.218 -0.6007 0.759 -0.6007
1708347910.2193 0.695 -0.219 -0.5976 0.762 -0.5976
1708347910.2276 0.697 -0.221 -0.5899 0.764 -0.5899
1708347910.2354 0.699 -0.222 -0.5852 0.766 -0.5852
1708347910.2429 0.701 -0.223 -0.5852 0.769 -0.5852
1708347910.2515 0.703 -0.224 -0.5774 0.771 -0.5774
1708347910.2589 0.705 -0.226 -0.5697 0.773 -0.5697
1708347910.2670 0.707 -0.227 -0.5712 0.776 -0.5712
1708347910.2751 0.709 -0.228 -0.5759 0.778 -0.5759
1708347910.2829 0.711 -0.230 -0.5759 0.781 -0.5759
1708347910.2910 0.713 -0.231 -0.5712 0.783 -0.5712
1708347910.2991 0.715 -0.232 -0.5666 0.786 -0.5666
1708347910.3072 0.718 -0.234 -0.5666 0.789 -0.5666
1708347910.3151 0.720 -0.235 -0.5666 0.791 -0.5666
1708347910.3230 0.721 -0.236 -0.5681 0.792 -0.5681
1708347910.3313 0.723 -0.237 -0.5681 0.795 -0.5681
1708347910.3394 0.726 -0.239 -0.5635 0.798 -0.5635
1708347910.3476 0.728 -0.240 -0.5619 0.800 -0.5619
1708347910.3561 0.730 -0.241 -0.5635 0.803 -0.5635
1708347910.3628 0.732 -0.243 -0.5666 0.805 -0.5666
1708347910.3718 0.733 -0.244 -0.5650 0.807 -0.5650
1708347910.3796 0.735 -0.245 -0.5619 0.809 -0.5619
1708347910.3873 0.738 -0.247 -0.5619 0.812 -0.5619
1708347910.3954 0.740 -0.248 -0.5650 0.815 -0.5650
1708347910.4032 0.742 -0.249 -0.5666 0.817 -0.5666
1708347910.4113 0.744 -0.250 -0.5650 0.819 -0.5650
1708347910.4191 0.746 -0.252 -0.5635 0.822 -0.5635
1708347910.4270 0.748 -0.253 -0.5635 0.825 -0.5635
1708347910.4351 0.750 -0.254 -0.5650 0.827 -0.5650
1708347910.4442 0.752 -0.255 -0.5650 0.829 -0.5650
1708347910.4509 0.754 -0.257 -0.5650 0.831 -0.5650
1708347910.4589 0.756 -0.258 -0.5635 0.834 -0.5635
1708347910.4674 0.758 -0.259 -0.5604 0.836 -0.5604
1708347910.4755 0.760 -0.260 -0.5604 0.838 -0.5604
1708347910.4829 0.762 -0.262 -0.5619 0.841 -0.5619
1708347910.4914 0.764 -0.263 -0.5619 0.843 -0.5619
1708347910.4993 0.766 -0.265 -0.5588 0.846 -0.5588
1708347910.5077 0.768 -0.266 -0.5573 0.848 -0.5573
1708347910.5163 0.770 -0.267 -0.5588 0.850 -0.5588
1708347910.5232 0.772 -0.268 -0.5604 0.853 -0.5604
1708347910.5309 0.774 -0.270 -0.5604 0.856 -0.5604
1708347910.5405 0.776 -0.271 -0.5588 0.858 -0.5588
1708347910.5474 0.777 -0.272 -0.5557 0.859 -0.5557
1708347910.5551 0.779 -0.273 -0.5526 0.862 -0.5526
1708347910.5634 0.782 -0.274 -0.5542 0.864 -0.5542
1708347910.5712 0.784 -0.276 -0.5588 0.867 -0.5588
1708347910.5795 0.786 -0.277 -0.5573 0.869 -0.5573
1708347910.5880 0.788 -0.278 -0.5542 0.871 -0.5542
1708347910.5950 0.790 -0.279 -0.5511 0.874 -0.5511
1708347910.6037 0.792 -0.281 -0.5511 0.876 -0.5511
1708347910.6111 0.794 -0.282 -0.5557 0.878 -0.5557
