% Pose without folding and reset (log_20240224_124848.679/log_pose_abs.txt)
% 1 	Time (sec)
% 2,3 	Position x,y (m)
% 4 	heading (rad)
% 5 	Driven distance (m) - signed
% 6 	Turned angle (rad) - signed
1708775329.3718 0.000 0.000 0.0000 0.000 0.0000
1708775329.3795 0.000 0.000 0.0000 0.000 0.0000
1708775329.3868 0.003 0.000 0.0000 0.003 0.0000
1708775329.3954 0.005 0.000 0.0000 0.005 0.0000
1708775329.4028 0.006 0.000 0.0016 0.006 0.0016
1708775329.4106 0.007 0.000 0.0031 0.007 0.0031
1708775329.4189 0.009 0.000 0.0016 0.009 0.0016
1708775329.4274 0.011 0.000 -0.0000 0.011 -0.0000
1708775329.4352 0.014 0.000 -0.0000 0.014 -0.0000
1708775329.4428 0.016 0.000 0.0016 0.016 0.0016
1708775329.4510 0.018 0.000 0.0016 0.018 0.0016
1708775329.4590 0.020 0.000 -0.0016 0.020 -0.0016
1708775329.4669 0.023 0.000 -0.0016 0.023 -0.0016
1708775329.4744 0.026 0.000 -0.0000 0.026 0.0000
1708775329.4830 0.028 0.000 0.0031 0.028 0.0031
1708775329.4906 0.031 0.000 0.0031 0.031 0.0031
1708775329.4987 0.033 0.000 0.0031 0.033 0.0031
1708775329.5067 0.036 0.000 0.0016 0.036 0.0016
1708775329.5144 0.040 0.000 0.0000 0.040 0.0000
1708775329.5230 0.042 0.000 0.0000 0.042 0.0000
1708775329.5323 0.045 0.000 0.0016 0.045 0.0016
1708775329.5390 0.048 0.000 0.0016 0.048 0.0016
1708775329.5466 0.052 0.000 0.0000 0.052 0.0000
1708775329.5549 0.055 0.000 0.0000 0.055 0.0000
1708775329.5632 0.058 0.000 0.0000 0.058 0.0000
1708775329.5711 0.060 0.000 0.0016 0.060 0.0016
1708775329.5789 0.063 0.000 0.0016 0.063 0.0016
1708775329.5865 0.067 0.000 0.0016 0.067 0.0016
1708775329.5950 0.070 0.000 0.0000 0.070 0.0000
1708775329.6030 0.072 0.000 0.0000 0.072 0.0000
1708775329.6115 0.075 0.000 0.0000 0.075 0.0000
1708775329.6191 0.078 0.000 0.0000 0.078 0.0000
1708775329.6274 0.082 0.000 0.0016 0.082 0.0016
1708775329.6346 0.085 0.000 0.0016 0.085 0.0016
1708775329.6426 0.088 0.000 0.0000 0.088 0.0000
1708775329.6507 0.091 0.000 0.0000 0.091 0.0000
1708775329.6584 0.094 0.000 -0.0016 0.094 -0.0016
1708775329.6665 0.097 0.000 0.0000 0.097 0.0000
1708775329.6745 0.100 0.000 0.0000 0.100 0.0000
1708775329.6832 0.103 0.000 0.0016 0.103 0.0016
1708775329.6911 0.106 0.000 0.0000 0.106 0.0000
1708775329.6989 0.110 0.000 0.0000 0.110 0.0000
1708775329.7076 0.113 0.000 -0.0016 0.113 -0.0016
1708775329.7161 0.116 0.000 0.0016 0.116 0.0016
1708775329.7231 0.119 0.000 0.0031 0.119 0.0031
1708775329.7304 0.122 0.000 0.0016 0.122 0.0016
1708775329.7392 0.126 0.000 0.0000 0.126 0.0000
1708775329.7472 0.129 0.000 0.0000 0.129 0.0000
1708775329.7545 0.132 0.000 0.0000 0.132 0.0000
1708775329.7626 0.135 0.000 -0.0016 0.135 -0.0016
1708775329.7707 0.138 0.000 -0.0016 0.138 -0.0016
1708775329.7785 0.141 0.000 -0.0016 0.141 -0.0016
1708775329.7866 0.144 0.000 0.0000 0.144 0.0000
1708775329.7947 0.148 0.000 -0.0016 0.148 -0.0016
1708775329.8025 0.151 0.000 -0.0031 0.151 -0.0031
1708775329.8106 0.154 0.000 -0.0047 0.154 -0.0047
1708775329.8187 0.157 0.000 -0.0016 0.157 -0.0016
1708775329.8264 0.160 0.000 0.0016 0.160 0.0016
1708775329.8352 0.164 0.000 0.0000 0.164 0.0000
1708775329.8431 0.167 0.000 -0.0031 0.167 -0.0031
1708775329.8507 0.170 0.000 -0.0016 0.170 -0.0016
1708775329.8589 0.173 0.000 0.0000 0.173 0.0000
1708775329.8672 0.177 0.000 0.0000 0.177 0.0000
1708775329.8747 0.180 0.000 -0.0031 0.180 -0.0031
1708775329.8832 0.183 0.000 -0.0031 0.183 -0.0031
1708775329.8914 0.186 0.000 -0.0016 0.186 -0.0016
1708775329.8990 0.189 0.000 0.0031 0.189 0.0031
1708775329.9072 0.193 0.000 0.0031 0.193 0.0031
1708775329.9153 0.196 0.000 0.0000 0.196 0.0000
1708775329.9229 0.199 0.000 -0.0016 0.199 -0.0016
1708775329.9306 0.202 0.000 0.0016 0.202 0.0016
1708775329.9388 0.205 0.000 0.0031 0.205 0.0031
1708775329.9465 0.208 0.000 0.0016 0.208 0.0016
1708775329.9545 0.212 0.000 -0.0016 0.212 -0.0016
1708775329.9627 0.215 0.000 -0.0016 0.215 -0.0016
1708775329.9712 0.218 0.000 0.0016 0.218 0.0016
1708775329.9790 0.221 0.000 0.0031 0.221 0.0031
1708775329.9873 0.224 0.000 0.0000 0.224 0.0000
1708775329.9948 0.228 0.000 -0.0031 0.228 -0.0031
1708775330.0029 0.231 0.000 -0.0031 0.231 -0.0031
1708775330.0110 0.234 0.000 0.0000 0.234 0.0000
1708775330.0185 0.237 0.000 0.0016 0.237 0.0016
1708775330.0266 0.240 0.000 -0.0016 0.240 -0.0016
1708775330.0351 0.243 0.000 -0.0016 0.243 -0.0016
1708775330.0427 0.246 0.000 0.0000 0.246 0.0000
