% Pose without folding and reset (log_20240224_114601.516/log_pose_abs.txt)
% 1 	Time (sec)
% 2,3 	Position x,y (m)
% 4 	heading (rad)
% 5 	Driven distance (m) - signed
% 6 	Turned angle (rad) - signed
1708771561.7527 0.000 0.000 0.0000 0.000 0.0000
1708771561.7608 0.000 0.000 0.0000 0.000 0.0000
1708771561.7686 -0.000 -0.000 0.0016 -0.000 0.0016
1708771561.7763 -0.000 -0.000 0.0016 -0.000 0.0016
1708771561.7845 -0.000 -0.000 0.0016 -0.000 0.0016
1708771561.7916 -0.000 -0.000 0.0016 -0.000 0.0016
1708771561.8004 -0.000 -0.000 0.0016 -0.000 0.0016
1708771561.8092 -0.000 -0.000 0.0016 -0.000 0.0016
1708771561.8161 -0.000 -0.000 0.0016 -0.000 0.0016
1708771561.8238 -0.000 -0.000 0.0016 -0.000 0.0016
1708771561.8323 -0.000 -0.000 0.0016 -0.000 0.0016
1708771561.8396 -0.000 -0.000 0.0016 -0.000 0.0016
1708771561.8484 -0.000 -0.000 0.0016 -0.000 0.0016
1708771561.8570 -0.000 -0.000 0.0016 -0.000 0.0016
1708771561.8638 -0.000 -0.000 0.0016 -0.000 0.0016
1708771561.8715 0.000 0.000 0.0000 0.000 0.0000
1708771561.8806 0.001 0.000 0.0047 0.001 0.0047
1708771561.8877 0.002 0.000 0.0016 0.002 0.0016
1708771561.8964 0.004 0.000 -0.0031 0.004 -0.0031
1708771561.9044 0.005 0.000 -0.0016 0.005 -0.0016
1708771561.9121 0.006 0.000 0.0000 0.006 0.0000
1708771561.9198 0.008 0.000 -0.0016 0.008 -0.0016
1708771561.9282 0.010 -0.000 -0.0016 0.010 -0.0016
1708771561.9401 0.012 -0.000 -0.0016 0.012 -0.0016
1708771561.9482 0.015 -0.000 -0.0031 0.015 -0.0031
1708771561.9533 0.017 -0.000 -0.0047 0.017 -0.0047
1708771561.9611 0.020 -0.000 -0.0047 0.020 -0.0047
1708771561.9690 0.022 -0.000 -0.0031 0.022 -0.0031
1708771561.9770 0.025 -0.000 -0.0031 0.025 -0.0031
1708771561.9843 0.029 -0.000 -0.0031 0.029 -0.0031
1708771561.9935 0.032 -0.000 -0.0047 0.032 -0.0047
1708771562.0014 0.035 -0.000 -0.0047 0.035 -0.0047
1708771562.0087 0.038 -0.000 -0.0047 0.038 -0.0047
1708771562.0170 0.042 -0.000 -0.0047 0.042 -0.0047
1708771562.0253 0.045 -0.000 -0.0062 0.045 -0.0062
1708771562.0331 0.048 -0.000 -0.0078 0.048 -0.0078
1708771562.0405 0.051 -0.000 -0.0078 0.051 -0.0078
1708771562.0493 0.055 -0.000 -0.0062 0.055 -0.0062
1708771562.0571 0.058 -0.000 -0.0047 0.058 -0.0047
1708771562.0647 0.061 -0.000 -0.0062 0.061 -0.0062
1708771562.0728 0.064 -0.000 -0.0078 0.064 -0.0078
1708771562.0811 0.068 -0.000 -0.0078 0.068 -0.0078
1708771562.0888 0.071 -0.000 -0.0062 0.071 -0.0062
1708771562.0977 0.074 -0.000 -0.0031 0.074 -0.0031
1708771562.1043 0.077 -0.000 -0.0031 0.077 -0.0031
1708771562.1129 0.080 -0.000 -0.0062 0.080 -0.0062
1708771562.1213 0.084 -0.000 -0.0093 0.084 -0.0093
1708771562.1288 0.087 -0.000 -0.0062 0.087 -0.0062
1708771562.1370 0.090 -0.000 -0.0016 0.090 -0.0016
1708771562.1450 0.094 -0.000 -0.0031 0.094 -0.0031
1708771562.1528 0.097 -0.000 -0.0078 0.097 -0.0078
1708771562.1604 0.100 -0.000 -0.0093 0.100 -0.0093
1708771562.1694 0.103 -0.000 -0.0062 0.103 -0.0062
1708771562.1770 0.106 -0.001 -0.0047 0.106 -0.0047
1708771562.1850 0.109 -0.001 -0.0062 0.109 -0.0062
1708771562.1929 0.113 -0.001 -0.0109 0.113 -0.0109
1708771562.2007 0.116 -0.001 -0.0124 0.116 -0.0124
1708771562.2082 0.119 -0.001 -0.0078 0.119 -0.0078
1708771562.2172 0.122 -0.001 -0.0062 0.122 -0.0062
1708771562.2247 0.125 -0.001 -0.0109 0.125 -0.0109
1708771562.2327 0.128 -0.001 -0.0140 0.128 -0.0140
1708771562.2406 0.132 -0.001 -0.0140 0.132 -0.0140
1708771562.2483 0.135 -0.001 -0.0093 0.135 -0.0093
1708771562.2563 0.137 -0.001 -0.0109 0.137 -0.0109
1708771562.2653 0.140 -0.001 -0.0155 0.140 -0.0155
1708771562.2729 0.144 -0.001 -0.0186 0.144 -0.0186
1708771562.2809 0.148 -0.001 -0.0171 0.148 -0.0171
1708771562.2887 0.150 -0.001 -0.0140 0.150 -0.0140
1708771562.2965 0.153 -0.001 -0.0140 0.153 -0.0140
1708771562.3044 0.156 -0.001 -0.0171 0.156 -0.0171
1708771562.3127 0.160 -0.001 -0.0202 0.160 -0.0202
1708771562.3203 0.163 -0.001 -0.0186 0.163 -0.0186
1708771562.3282 0.166 -0.001 -0.0186 0.166 -0.0186
1708771562.3371 0.169 -0.001 -0.0202 0.169 -0.0202
1708771562.3448 0.172 -0.001 -0.0233 0.172 -0.0233
1708771562.3526 0.176 -0.002 -0.0248 0.176 -0.0248
1708771562.3612 0.179 -0.002 -0.0202 0.179 -0.0202
1708771562.3689 0.182 -0.002 -0.0186 0.182 -0.0186
1708771562.3767 0.185 -0.002 -0.0233 0.185 -0.0233
1708771562.3847 0.188 -0.002 -0.0264 0.188 -0.0264
1708771562.3923 0.192 -0.002 -0.0295 0.192 -0.0295
1708771562.4011 0.195 -0.002 -0.0264 0.195 -0.0264
1708771562.4097 0.198 -0.002 -0.0233 0.198 -0.0233
1708771562.4163 0.201 -0.002 -0.0233 0.201 -0.0233
1708771562.4241 0.204 -0.002 -0.0279 0.204 -0.0279
1708771562.4330 0.207 -0.002 -0.0310 0.207 -0.0310
1708771562.4407 0.210 -0.002 -0.0295 0.210 -0.0295
1708771562.4484 0.214 -0.002 -0.0295 0.214 -0.0295
1708771562.4574 0.217 -0.003 -0.0310 0.217 -0.0310
1708771562.4647 0.220 -0.003 -0.0341 0.220 -0.0341
1708771562.4726 0.223 -0.003 -0.0357 0.223 -0.0357
1708771562.4815 0.227 -0.003 -0.0373 0.227 -0.0373
1708771562.4890 0.230 -0.003 -0.0357 0.230 -0.0357
1708771562.4968 0.233 -0.003 -0.0357 0.233 -0.0357
1708771562.5048 0.236 -0.003 -0.0373 0.237 -0.0373
1708771562.5122 0.239 -0.003 -0.0404 0.240 -0.0404
1708771562.5211 0.242 -0.004 -0.0404 0.243 -0.0404
1708771562.5289 0.246 -0.004 -0.0388 0.246 -0.0388
1708771562.5364 0.249 -0.004 -0.0357 0.250 -0.0357
1708771562.5442 0.252 -0.004 -0.0357 0.253 -0.0357
1708771562.5532 0.255 -0.004 -0.0357 0.255 -0.0357
1708771562.5605 0.258 -0.004 -0.0310 0.258 -0.0310
1708771562.5683 0.262 -0.004 -0.0264 0.262 -0.0264
1708771562.5770 0.265 -0.004 -0.0248 0.265 -0.0248
1708771562.5847 0.268 -0.004 -0.0186 0.268 -0.0186
1708771562.5925 0.271 -0.004 -0.0093 0.271 -0.0093
1708771562.6014 0.274 -0.004 -0.0031 0.274 -0.0031
1708771562.6088 0.277 -0.004 0.0062 0.277 0.0062
1708771562.6170 0.280 -0.004 0.0140 0.280 0.0140
1708771562.6248 0.283 -0.004 0.0248 0.283 0.0248
1708771562.6325 0.286 -0.004 0.0388 0.286 0.0388
1708771562.6404 0.289 -0.004 0.0528 0.289 0.0528
1708771562.6494 0.292 -0.004 0.0652 0.292 0.0652
1708771562.6571 0.295 -0.004 0.0792 0.296 0.0792
1708771562.6648 0.299 -0.003 0.0962 0.299 0.0962
1708771562.6727 0.302 -0.003 0.1133 0.302 0.1133
1708771562.6805 0.305 -0.003 0.1273 0.305 0.1273
1708771562.6883 0.308 -0.002 0.1397 0.309 0.1397
1708771562.6972 0.312 -0.002 0.1521 0.312 0.1521
1708771562.7049 0.315 -0.001 0.1661 0.315 0.1661
1708771562.7126 0.318 -0.001 0.1770 0.318 0.1770
1708771562.7215 0.321 -0.000 0.1878 0.322 0.1878
1708771562.7291 0.324 0.001 0.1956 0.325 0.1956
1708771562.7370 0.328 0.001 0.2049 0.329 0.2049
1708771562.7449 0.331 0.002 0.2158 0.332 0.2158
1708771562.7608 0.337 0.003 0.2297 0.338 0.2297
1708771562.7691 0.340 0.004 0.2344 0.341 0.2344
1708771562.7762 0.343 0.005 0.2375 0.344 0.2375
1708771562.7845 0.347 0.006 0.2468 0.348 0.2468
1708771562.7928 0.350 0.006 0.2561 0.351 0.2561
1708771562.8007 0.353 0.007 0.2639 0.354 0.2639
1708771562.8083 0.356 0.008 0.2654 0.357 0.2654
1708771562.8173 0.359 0.009 0.2685 0.360 0.2685
1708771562.8250 0.362 0.010 0.2747 0.363 0.2747
1708771562.8329 0.365 0.011 0.2794 0.367 0.2794
1708771562.8410 0.368 0.011 0.2794 0.370 0.2794
1708771562.8487 0.371 0.012 0.2841 0.373 0.2841
1708771562.8567 0.374 0.013 0.2872 0.376 0.2872
1708771562.8654 0.377 0.014 0.2887 0.379 0.2887
1708771562.8730 0.380 0.015 0.2872 0.382 0.2872
1708771562.8809 0.383 0.016 0.2887 0.385 0.2887
1708771562.8888 0.386 0.017 0.2918 0.389 0.2918
1708771562.8963 0.390 0.018 0.2918 0.392 0.2918
1708771562.9043 0.392 0.019 0.2918 0.395 0.2918
1708771562.9130 0.395 0.019 0.2918 0.398 0.2918
1708771562.9206 0.398 0.020 0.2918 0.401 0.2918
1708771562.9286 0.402 0.022 0.2918 0.405 0.2918
1708771562.9375 0.405 0.022 0.2934 0.408 0.2934
1708771562.9450 0.407 0.023 0.2949 0.411 0.2949
1708771562.9529 0.410 0.024 0.2980 0.414 0.2980
1708771562.9615 0.414 0.025 0.2949 0.418 0.2949
1708771562.9681 0.417 0.026 0.2918 0.421 0.2918
1708771562.9761 0.420 0.027 0.2887 0.424 0.2887
1708771562.9850 0.422 0.028 0.2887 0.426 0.2887
1708771562.9928 0.425 0.028 0.2918 0.429 0.2918
1708771563.0007 0.428 0.029 0.2918 0.432 0.2918
1708771563.0095 0.431 0.030 0.2887 0.436 0.2887
1708771563.0161 0.435 0.031 0.2841 0.439 0.2841
1708771563.0251 0.438 0.032 0.2856 0.443 0.2856
1708771563.0330 0.440 0.033 0.2903 0.445 0.2903
1708771563.0408 0.443 0.034 0.2903 0.448 0.2903
1708771563.0488 0.447 0.035 0.2872 0.452 0.2872
1708771563.0567 0.450 0.036 0.2841 0.455 0.2841
1708771563.0651 0.453 0.037 0.2856 0.458 0.2856
1708771563.0729 0.456 0.038 0.2872 0.461 0.2872
1708771563.0813 0.459 0.038 0.2903 0.465 0.2903
1708771563.0890 0.462 0.040 0.2856 0.468 0.2856
1708771563.0970 0.465 0.040 0.2810 0.471 0.2810
1708771563.1050 0.468 0.041 0.2810 0.474 0.2810
1708771563.1124 0.471 0.042 0.2872 0.477 0.2872
1708771563.1201 0.474 0.043 0.2887 0.481 0.2887
1708771563.1291 0.477 0.044 0.2856 0.484 0.2856
1708771563.1368 0.480 0.045 0.2794 0.487 0.2794
1708771563.1447 0.484 0.046 0.2779 0.491 0.2779
1708771563.1535 0.487 0.047 0.2810 0.494 0.2810
1708771563.1608 0.490 0.048 0.2841 0.497 0.2841
1708771563.1688 0.493 0.048 0.2841 0.500 0.2841
1708771563.1770 0.496 0.049 0.2794 0.503 0.2794
1708771563.1848 0.499 0.050 0.2763 0.507 0.2763
1708771563.1928 0.502 0.051 0.2794 0.510 0.2794
1708771563.2007 0.506 0.052 0.2841 0.513 0.2841
1708771563.2088 0.508 0.053 0.2841 0.516 0.2841
1708771563.2167 0.512 0.054 0.2794 0.520 0.2794
1708771563.2257 0.515 0.055 0.2763 0.523 0.2763
1708771563.2325 0.518 0.056 0.2794 0.527 0.2794
1708771563.2405 0.521 0.057 0.2841 0.529 0.2841
1708771563.2494 0.523 0.057 0.2856 0.532 0.2856
1708771563.2569 0.526 0.058 0.2841 0.535 0.2841
1708771563.2646 0.530 0.059 0.2825 0.539 0.2825
1708771563.2736 0.533 0.060 0.2810 0.542 0.2810
1708771563.2802 0.536 0.061 0.2841 0.545 0.2841
1708771563.2891 0.539 0.062 0.2856 0.548 0.2856
1708771563.2970 0.542 0.063 0.2841 0.551 0.2841
1708771563.3046 0.545 0.064 0.2810 0.555 0.2810
1708771563.3121 0.548 0.065 0.2825 0.558 0.2825
1708771563.3212 0.551 0.065 0.2841 0.560 0.2841
1708771563.3290 0.553 0.066 0.2825 0.563 0.2825
1708771563.3369 0.556 0.067 0.2794 0.566 0.2794
1708771563.3457 0.560 0.068 0.2794 0.570 0.2794
1708771563.3523 0.564 0.069 0.2810 0.574 0.2810
1708771563.3608 0.566 0.070 0.2825 0.576 0.2825
1708771563.3688 0.568 0.070 0.2825 0.579 0.2825
1708771563.3765 0.572 0.071 0.2825 0.582 0.2825
1708771563.3843 0.575 0.072 0.2825 0.586 0.2825
1708771563.3931 0.578 0.073 0.2841 0.589 0.2841
1708771563.4008 0.581 0.074 0.2825 0.592 0.2825
1708771563.4083 0.584 0.075 0.2856 0.595 0.2856
1708771563.4173 0.587 0.076 0.2872 0.598 0.2872
1708771563.4249 0.591 0.077 0.2825 0.602 0.2825
1708771563.4329 0.594 0.078 0.2794 0.605 0.2794
1708771563.4407 0.597 0.079 0.2825 0.608 0.2825
1708771563.4483 0.600 0.079 0.2856 0.611 0.2856
1708771563.4562 0.603 0.080 0.2856 0.614 0.2856
1708771563.4648 0.606 0.081 0.2810 0.618 0.2810
1708771563.4725 0.609 0.082 0.2779 0.621 0.2779
1708771563.4802 0.612 0.083 0.2810 0.624 0.2810
1708771563.4892 0.615 0.084 0.2856 0.627 0.2856
1708771563.4972 0.618 0.085 0.2856 0.630 0.2856
1708771563.5042 0.621 0.086 0.2825 0.633 0.2825
1708771563.5128 0.624 0.087 0.2810 0.637 0.2810
