% Pose without folding and reset (log_20240224_114452.626/log_pose_abs.txt)
% 1 	Time (sec)
% 2,3 	Position x,y (m)
% 4 	heading (rad)
% 5 	Driven distance (m) - signed
% 6 	Turned angle (rad) - signed
1708771493.1567 0.000 0.000 0.0000 0.000 0.0000
1708771493.1646 0.000 0.000 0.0000 0.000 0.0000
1708771493.1720 0.003 0.000 0.0031 0.003 0.0031
1708771493.1797 0.005 0.000 0.0078 0.005 0.0078
1708771493.1884 0.006 0.000 0.0093 0.006 0.0093
1708771493.1957 0.005 0.000 0.0062 0.005 0.0062
1708771493.2037 0.005 0.000 0.0031 0.005 0.0031
1708771493.2127 0.004 0.000 0.0016 0.004 0.0016
1708771493.2199 0.004 0.000 -0.0000 0.004 -0.0000
1708771493.2274 0.004 0.000 -0.0016 0.004 -0.0016
1708771493.2367 0.004 0.000 -0.0016 0.004 -0.0016
1708771493.2438 0.007 0.000 -0.0031 0.007 -0.0031
1708771493.2516 0.011 -0.000 -0.0016 0.011 -0.0016
1708771493.2599 0.015 -0.000 -0.0016 0.015 -0.0016
1708771493.2677 0.019 -0.000 0.0016 0.019 0.0016
1708771493.2828 0.022 -0.000 0.0016 0.022 0.0016
1708771493.2893 0.025 -0.000 -0.0016 0.025 -0.0016
1708771493.2924 0.029 -0.000 -0.0062 0.029 -0.0062
1708771493.3005 0.032 -0.000 -0.0093 0.032 -0.0093
1708771493.3083 0.035 -0.000 -0.0047 0.035 -0.0047
1708771493.3162 0.037 -0.000 0.0000 0.037 0.0000
1708771493.3238 0.041 -0.000 0.0031 0.041 0.0031
1708771493.3319 0.046 -0.000 0.0047 0.046 0.0047
1708771493.3401 0.051 -0.000 0.0016 0.051 0.0016
1708771493.3479 0.055 -0.000 0.0031 0.055 0.0031
1708771493.3566 0.059 -0.000 0.0047 0.059 0.0047
1708771493.3640 0.063 0.000 0.0047 0.063 0.0047
1708771493.3719 0.068 0.000 0.0047 0.068 0.0047
1708771493.3803 0.072 0.000 0.0047 0.072 0.0047
1708771493.3877 0.076 0.000 0.0062 0.076 0.0062
1708771493.3975 0.081 0.000 0.0062 0.081 0.0062
1708771493.4047 0.086 0.000 0.0062 0.086 0.0062
1708771493.4122 0.091 0.000 0.0016 0.091 0.0016
1708771493.4203 0.095 0.000 0.0016 0.095 0.0016
1708771493.4286 0.099 0.000 0.0016 0.099 0.0016
1708771493.4361 0.104 0.000 0.0047 0.104 0.0047
1708771493.4442 0.108 0.000 0.0047 0.108 0.0047
1708771493.4529 0.113 0.000 0.0016 0.113 0.0016
1708771493.4603 0.118 0.000 -0.0016 0.118 -0.0016
1708771493.4675 0.122 0.000 0.0000 0.122 0.0000
1708771493.4766 0.127 0.000 0.0031 0.127 0.0031
1708771493.4838 0.132 0.000 0.0031 0.132 0.0031
1708771493.4922 0.137 0.000 0.0031 0.137 0.0031
1708771493.5002 0.141 0.000 0.0031 0.141 0.0031
1708771493.5082 0.146 0.000 0.0031 0.146 0.0031
1708771493.5153 0.151 0.000 0.0016 0.151 0.0016
1708771493.5244 0.156 0.000 0.0016 0.156 0.0016
1708771493.5322 0.160 0.000 0.0031 0.160 0.0031
1708771493.5397 0.165 0.000 0.0031 0.165 0.0031
1708771493.5488 0.170 0.000 0.0016 0.170 0.0016
1708771493.5557 0.174 0.000 0.0016 0.174 0.0016
1708771493.5639 0.179 0.000 0.0016 0.179 0.0016
1708771493.5718 0.184 0.000 0.0016 0.184 0.0016
1708771493.5795 0.188 0.000 0.0016 0.188 0.0016
1708771493.5881 0.194 0.000 0.0000 0.194 0.0000
1708771493.5961 0.198 0.000 -0.0016 0.198 -0.0016
1708771493.6041 0.203 0.000 -0.0016 0.203 -0.0016
1708771493.6122 0.208 0.000 0.0016 0.208 0.0016
1708771493.6206 0.213 0.000 0.0031 0.213 0.0031
1708771493.6273 0.217 0.000 0.0000 0.217 0.0000
1708771493.6359 0.222 0.000 -0.0031 0.222 -0.0031
1708771493.6440 0.226 0.000 -0.0031 0.226 -0.0031
1708771493.6519 0.231 0.000 -0.0016 0.231 -0.0016
1708771493.6599 0.236 0.000 0.0016 0.236 0.0016
1708771493.6687 0.242 0.000 -0.0016 0.242 -0.0016
1708771493.6759 0.246 0.000 -0.0031 0.246 -0.0031
1708771493.6836 0.251 0.000 0.0000 0.251 0.0000
1708771493.6928 0.255 0.000 0.0031 0.255 0.0031
1708771493.6997 0.260 0.000 0.0000 0.260 0.0000
1708771493.7074 0.265 0.000 0.0016 0.265 0.0016
1708771493.7159 0.270 0.000 0.0016 0.270 0.0016
1708771493.7240 0.274 0.000 0.0000 0.274 0.0000
1708771493.7315 0.279 0.000 0.0016 0.279 0.0016
1708771493.7405 0.284 0.000 0.0016 0.284 0.0016
1708771493.7475 0.289 0.000 -0.0016 0.289 -0.0016
1708771493.7559 0.294 0.000 -0.0016 0.294 -0.0016
1708771493.7646 0.298 0.000 0.0000 0.298 0.0000
1708771493.7715 0.303 0.000 0.0000 0.303 0.0000
1708771493.7801 0.308 0.000 0.0000 0.308 0.0000
1708771493.7882 0.313 0.000 0.0016 0.313 0.0016
1708771493.7953 0.317 0.000 0.0000 0.317 0.0000
1708771493.8038 0.322 0.000 0.0000 0.322 0.0000
1708771493.8135 0.326 0.000 0.0016 0.326 0.0016
1708771493.8194 0.332 0.000 0.0031 0.332 0.0031
