% Pose without folding and reset (log_20240219_144613.444/log_pose_abs.txt)
% 1 	Time (sec)
% 2,3 	Position x,y (m)
% 4 	heading (rad)
% 5 	Driven distance (m) - signed
% 6 	Turned angle (rad) - signed
1708350374.5075 0.000 0.000 0.0000 0.000 0.0000
1708350374.5149 0.000 0.000 0.0000 0.000 0.0000
1708350374.5237 -0.000 -0.000 0.0016 -0.000 0.0016
1708350374.5303 0.000 0.000 0.0000 0.000 0.0000
1708350374.5384 0.000 0.000 0.0000 0.000 0.0000
1708350374.5465 0.000 0.000 0.0000 0.000 0.0000
1708350374.5540 0.000 0.000 0.0000 0.000 0.0000
1708350374.5627 0.000 0.000 0.0000 0.000 0.0000
1708350374.5705 0.000 0.000 0.0000 0.000 0.0000
1708350374.5781 0.000 0.000 0.0000 0.000 0.0000
1708350374.5862 0.000 0.000 0.0000 0.000 0.0000
1708350374.5947 0.000 0.000 0.0000 0.000 0.0000
1708350374.6025 0.000 0.000 0.0000 0.000 0.0000
1708350374.6111 0.000 0.000 0.0000 0.000 0.0000
1708350374.6188 0.000 0.000 0.0000 0.000 0.0000
1708350374.6264 0.000 0.000 0.0000 0.000 0.0000
1708350374.6345 0.000 0.000 0.0016 0.000 0.0016
1708350374.6426 0.001 0.000 0.0047 0.001 0.0047
1708350374.6504 0.002 0.000 -0.0000 0.002 -0.0000
1708350374.6593 0.002 0.000 -0.0016 0.002 -0.0016
1708350374.6672 0.003 0.000 -0.0000 0.003 -0.0000
1708350374.6749 0.004 0.000 -0.0016 0.004 -0.0016
1708350374.6832 0.005 0.000 -0.0000 0.005 -0.0000
1708350374.6903 0.006 0.000 -0.0000 0.006 -0.0000
1708350374.6992 0.008 -0.000 -0.0016 0.008 -0.0016
1708350374.7073 0.009 -0.000 -0.0000 0.009 -0.0000
1708350374.7152 0.011 0.000 0.0031 0.011 0.0031
1708350374.7231 0.013 0.000 0.0031 0.013 0.0031
1708350374.7313 0.015 0.000 0.0016 0.015 0.0016
1708350374.7385 0.018 0.000 0.0016 0.018 0.0016
1708350374.7465 0.020 0.000 0.0016 0.020 0.0016
1708350374.7548 0.022 0.000 0.0016 0.022 0.0016
1708350374.7628 0.025 0.000 0.0031 0.025 0.0031
1708350374.7707 0.027 0.000 0.0031 0.027 0.0031
1708350374.7791 0.030 0.000 0.0016 0.030 0.0016
1708350374.7864 0.032 0.000 -0.0000 0.032 -0.0000
1708350374.7953 0.035 0.000 -0.0000 0.035 -0.0000
1708350374.8026 0.037 0.000 0.0031 0.037 0.0031
1708350374.8112 0.039 0.000 0.0031 0.039 0.0031
1708350374.8189 0.042 0.000 -0.0016 0.042 -0.0016
1708350374.8273 0.045 0.000 -0.0031 0.045 -0.0031
1708350374.8346 0.047 0.000 -0.0000 0.047 -0.0000
1708350374.8425 0.049 0.000 0.0047 0.049 0.0047
1708350374.8510 0.051 0.000 0.0016 0.051 0.0016
1708350374.8584 0.054 0.000 -0.0031 0.054 -0.0031
1708350374.8672 0.057 0.000 -0.0031 0.057 -0.0031
1708350374.8746 0.059 0.000 -0.0000 0.059 -0.0000
1708350374.8832 0.062 0.000 0.0016 0.062 0.0016
1708350374.8913 0.064 0.000 -0.0000 0.064 -0.0000
1708350374.8985 0.067 0.000 -0.0047 0.067 -0.0047
1708350374.9070 0.069 0.000 -0.0047 0.069 -0.0047
1708350374.9146 0.071 0.000 -0.0000 0.071 -0.0000
1708350374.9230 0.074 0.000 0.0031 0.074 0.0031
1708350374.9313 0.077 0.000 -0.0000 0.077 -0.0000
1708350374.9392 0.079 0.000 -0.0062 0.079 -0.0062
1708350374.9465 0.081 0.000 -0.0062 0.081 -0.0062
1708350374.9549 0.083 0.000 -0.0000 0.083 -0.0000
1708350374.9625 0.085 0.000 0.0016 0.085 0.0016
1708350374.9709 0.088 0.000 -0.0016 0.088 -0.0016
1708350374.9792 0.091 -0.000 -0.0062 0.091 -0.0062
1708350374.9864 0.093 -0.000 -0.0047 0.093 -0.0047
1708350374.9951 0.095 -0.000 0.0016 0.095 0.0016
1708350375.0026 0.097 -0.000 0.0016 0.097 0.0016
1708350375.0111 0.099 -0.000 -0.0031 0.099 -0.0031
1708350375.0183 0.102 -0.000 -0.0062 0.102 -0.0062
1708350375.0271 0.105 -0.000 -0.0031 0.105 -0.0031
1708350375.0343 0.107 -0.000 0.0016 0.107 0.0016
1708350375.0431 0.109 -0.000 -0.0000 0.109 -0.0000
1708350375.0507 0.111 -0.000 -0.0031 0.111 -0.0031
1708350375.0592 0.114 -0.000 -0.0047 0.114 -0.0047
1708350375.0671 0.117 -0.000 -0.0031 0.117 -0.0031
1708350375.0744 0.119 -0.000 -0.0000 0.119 -0.0000
1708350375.0824 0.121 -0.000 0.0016 0.121 0.0016
1708350375.0907 0.123 -0.000 -0.0031 0.123 -0.0031
1708350375.0990 0.125 -0.000 -0.0047 0.125 -0.0047
1708350375.1070 0.128 -0.000 -0.0016 0.128 -0.0016
1708350375.1148 0.131 -0.000 0.0016 0.131 0.0016
1708350375.1233 0.132 -0.000 0.0016 0.132 0.0016
1708350375.1303 0.135 -0.000 -0.0000 0.135 -0.0000
1708350375.1387 0.138 -0.000 -0.0000 0.138 -0.0000
1708350375.1471 0.140 -0.000 -0.0000 0.140 -0.0000
1708350375.1550 0.142 -0.000 0.0016 0.142 0.0016
1708350375.1629 0.144 -0.000 0.0016 0.144 0.0016
1708350375.1712 0.147 -0.000 0.0016 0.147 0.0016
1708350375.1791 0.150 -0.000 0.0016 0.150 0.0016
1708350375.1864 0.152 -0.000 -0.0000 0.152 0.0000
1708350375.1950 0.154 -0.000 -0.0000 0.154 0.0000
1708350375.2031 0.156 -0.000 0.0016 0.156 0.0016
1708350375.2104 0.159 -0.000 0.0016 0.159 0.0016
1708350375.2183 0.162 -0.000 0.0016 0.162 0.0016
1708350375.2263 0.164 -0.000 -0.0000 0.164 0.0000
1708350375.2347 0.166 -0.000 -0.0000 0.166 0.0000
1708350375.2430 0.168 -0.000 0.0016 0.168 0.0016
1708350375.2510 0.171 -0.000 0.0016 0.171 0.0016
1708350375.2593 0.174 -0.000 -0.0000 0.174 0.0000
1708350375.2663 0.176 -0.000 0.0016 0.176 0.0016
1708350375.2753 0.178 -0.000 0.0016 0.178 0.0016
1708350375.2825 0.180 -0.000 0.0016 0.180 0.0016
1708350375.2908 0.183 -0.000 0.0000 0.183 0.0000
1708350375.2987 0.186 -0.000 0.0000 0.186 0.0000
1708350375.3071 0.188 -0.000 0.0000 0.188 0.0000
1708350375.3151 0.190 -0.000 0.0016 0.190 0.0016
1708350375.3230 0.192 -0.000 0.0016 0.192 0.0016
1708350375.3313 0.195 -0.000 0.0016 0.195 0.0016
1708350375.3385 0.198 -0.000 0.0000 0.198 0.0000
1708350375.3465 0.200 -0.000 0.0000 0.200 0.0000
1708350375.3549 0.203 -0.000 0.0016 0.203 0.0016
1708350375.3629 0.205 -0.000 0.0000 0.205 0.0000
1708350375.3708 0.207 -0.000 -0.0016 0.207 -0.0016
1708350375.3792 0.210 -0.000 -0.0031 0.210 -0.0031
1708350375.3865 0.212 -0.000 -0.0000 0.212 0.0000
1708350375.3948 0.215 -0.000 -0.0000 0.215 0.0000
1708350375.4032 0.217 -0.000 0.0016 0.217 0.0016
1708350375.4105 0.219 -0.000 0.0000 0.219 0.0000
1708350375.4193 0.221 -0.000 0.0000 0.221 0.0000
1708350375.4264 0.224 -0.000 0.0000 0.224 0.0000
1708350375.4349 0.227 -0.000 0.0016 0.227 0.0016
1708350375.4429 0.229 -0.000 0.0016 0.229 0.0016
1708350375.4512 0.231 -0.000 -0.0016 0.231 -0.0016
1708350375.4586 0.234 -0.000 -0.0016 0.234 -0.0016
1708350375.4672 0.237 -0.000 -0.0000 0.237 0.0000
1708350375.4743 0.239 -0.000 0.0031 0.239 0.0031
1708350375.4827 0.241 -0.000 0.0016 0.241 0.0016
1708350375.4903 0.243 -0.000 -0.0016 0.243 -0.0016
1708350375.4993 0.246 -0.000 -0.0031 0.246 -0.0031
1708350375.5066 0.248 -0.000 0.0000 0.248 0.0000
1708350375.5150 0.251 -0.000 0.0047 0.251 0.0047
1708350375.5226 0.253 -0.000 0.0016 0.253 0.0016
1708350375.5311 0.255 -0.000 -0.0031 0.255 -0.0031
1708350375.5391 0.258 -0.000 -0.0031 0.258 -0.0031
1708350375.5464 0.260 -0.000 0.0031 0.260 0.0031
1708350375.5548 0.263 -0.000 0.0047 0.263 0.0047
1708350375.5633 0.265 -0.000 -0.0000 0.265 -0.0000
1708350375.5705 0.267 -0.000 -0.0047 0.267 -0.0047
1708350375.5790 0.270 -0.000 -0.0031 0.270 -0.0031
1708350375.5869 0.272 -0.000 0.0016 0.272 0.0016
1708350375.5954 0.274 -0.000 0.0031 0.274 0.0031
1708350375.6026 0.277 -0.000 0.0016 0.277 0.0016
1708350375.6104 0.279 -0.000 -0.0016 0.279 -0.0016
1708350375.6193 0.282 -0.000 -0.0016 0.282 -0.0016
1708350375.6266 0.283 -0.000 0.0016 0.283 0.0016
1708350375.6345 0.286 -0.000 0.0047 0.286 0.0047
1708350375.6429 0.288 -0.000 0.0016 0.288 0.0016
1708350375.6512 0.291 -0.000 -0.0047 0.291 -0.0047
1708350375.6593 0.293 -0.000 -0.0047 0.293 -0.0047
1708350375.6673 0.296 -0.000 0.0016 0.296 0.0016
1708350375.6749 0.298 -0.000 0.0031 0.298 0.0031
1708350375.6830 0.300 -0.000 -0.0016 0.300 -0.0016
1708350375.6914 0.303 -0.000 -0.0062 0.303 -0.0062
1708350375.6986 0.305 -0.000 -0.0031 0.305 -0.0031
1708350375.7065 0.308 -0.000 0.0016 0.308 0.0016
1708350375.7146 0.310 -0.000 0.0016 0.310 0.0016
1708350375.7229 0.312 -0.000 -0.0016 0.312 -0.0016
1708350375.7309 0.315 -0.000 -0.0031 0.315 -0.0031
1708350375.7391 0.318 -0.000 -0.0000 0.318 0.0000
1708350375.7464 0.320 -0.000 0.0031 0.320 0.0031
1708350375.7543 0.322 -0.000 0.0016 0.322 0.0016
1708350375.7633 0.324 -0.000 -0.0031 0.324 -0.0031
1708350375.7707 0.327 -0.000 -0.0047 0.327 -0.0047
1708350375.7787 0.329 -0.000 -0.0016 0.329 -0.0016
1708350375.7871 0.332 -0.000 0.0016 0.332 0.0016
1708350375.7944 0.334 -0.000 0.0016 0.334 0.0016
1708350375.8023 0.336 -0.000 -0.0016 0.336 -0.0016
1708350375.8106 0.339 -0.000 -0.0047 0.339 -0.0047
1708350375.8187 0.341 -0.000 -0.0016 0.341 -0.0016
1708350375.8266 0.344 -0.000 0.0031 0.344 0.0031
1708350375.8348 0.346 -0.000 0.0016 0.346 0.0016
1708350375.8430 0.348 -0.000 -0.0016 0.348 -0.0016
1708350375.8511 0.351 -0.000 -0.0000 0.351 -0.0000
1708350375.8593 0.353 -0.000 0.0031 0.353 0.0031
1708350375.8673 0.355 -0.000 0.0031 0.355 0.0031
1708350375.8751 0.358 -0.000 -0.0031 0.358 -0.0031
1708350375.8823 0.360 -0.000 -0.0062 0.360 -0.0062
1708350375.8908 0.363 -0.000 -0.0016 0.363 -0.0016
1708350375.8987 0.365 -0.000 0.0047 0.365 0.0047
1708350375.9070 0.367 -0.000 0.0016 0.367 0.0016
1708350375.9151 0.369 -0.000 -0.0047 0.369 -0.0047
1708350375.9231 0.372 -0.000 -0.0062 0.372 -0.0062
1708350375.9305 0.374 -0.000 0.0016 0.374 0.0016
1708350375.9390 0.376 -0.000 0.0031 0.376 0.0031
1708350375.9470 0.379 -0.000 -0.0000 0.379 0.0000
1708350375.9553 0.381 -0.000 -0.0062 0.381 -0.0062
1708350375.9632 0.384 -0.000 -0.0047 0.384 -0.0047
1708350375.9712 0.387 -0.000 0.0031 0.387 0.0031
1708350375.9784 0.388 -0.000 0.0047 0.388 0.0047
1708350375.9868 0.391 -0.000 -0.0000 0.391 -0.0000
1708350375.9948 0.393 -0.000 -0.0031 0.393 -0.0031
1708350376.0028 0.396 -0.000 -0.0000 0.396 -0.0000
1708350376.0113 0.399 -0.000 0.0016 0.399 0.0016
1708350376.0188 0.401 -0.000 -0.0000 0.401 -0.0000
1708350376.0271 0.403 -0.000 -0.0047 0.403 -0.0047
1708350376.0344 0.406 -0.000 -0.0031 0.406 -0.0031
1708350376.0431 0.408 -0.000 0.0016 0.408 0.0016
1708350376.0504 0.410 -0.000 0.0031 0.410 0.0031
1708350376.0586 0.413 -0.000 -0.0000 0.413 -0.0000
1708350376.0672 0.415 -0.000 -0.0031 0.415 -0.0031
1708350376.0743 0.418 -0.000 -0.0031 0.418 -0.0031
1708350376.0828 0.420 -0.000 -0.0000 0.420 -0.0000
1708350376.0908 0.422 -0.000 0.0031 0.422 0.0031
1708350376.0990 0.425 -0.000 0.0016 0.425 0.0016
1708350376.1063 0.427 -0.000 -0.0016 0.427 -0.0016
1708350376.1149 0.430 -0.000 -0.0000 0.430 0.0000
1708350376.1232 0.432 -0.000 0.0031 0.432 0.0031
1708350376.1306 0.434 -0.000 0.0016 0.434 0.0016
1708350376.1385 0.437 -0.000 -0.0016 0.437 -0.0016
1708350376.1467 0.439 -0.000 0.0016 0.439 0.0016
1708350376.1552 0.442 -0.000 0.0016 0.442 0.0016
1708350376.1639 0.444 -0.000 -0.0000 0.444 -0.0000
1708350376.1712 0.446 -0.000 -0.0016 0.446 -0.0016
1708350376.1787 0.449 -0.000 -0.0000 0.449 -0.0000
1708350376.1868 0.451 -0.000 0.0016 0.451 0.0016
1708350376.1951 0.453 -0.000 -0.0000 0.453 -0.0000
1708350376.2025 0.455 -0.000 -0.0031 0.455 -0.0031
1708350376.2104 0.458 -0.000 -0.0016 0.458 -0.0016
1708350376.2185 0.461 -0.000 -0.0000 0.461 -0.0000
1708350376.2268 0.462 -0.000 -0.0000 0.462 -0.0000
1708350376.2346 0.465 -0.000 -0.0016 0.465 -0.0016
1708350376.2430 0.467 -0.000 -0.0031 0.467 -0.0031
1708350376.2504 0.470 -0.000 -0.0016 0.470 -0.0016
1708350376.2583 0.473 -0.000 -0.0000 0.473 -0.0000
1708350376.2673 0.474 -0.000 0.0016 0.474 0.0016
1708350376.2746 0.476 -0.000 -0.0031 0.476 -0.0031
1708350376.2825 0.479 -0.000 -0.0031 0.479 -0.0031
1708350376.2909 0.482 -0.000 0.0016 0.482 0.0016
1708350376.2993 0.484 -0.000 0.0047 0.484 0.0047
1708350376.3073 0.487 -0.000 0.0031 0.487 0.0031
1708350376.3152 0.489 -0.000 -0.0016 0.489 -0.0016
1708350376.3235 0.491 -0.000 -0.0031 0.491 -0.0031
1708350376.3303 0.494 -0.000 0.0016 0.494 0.0016
1708350376.3386 0.496 -0.000 0.0047 0.496 0.0047
1708350376.3472 0.498 -0.000 0.0016 0.498 0.0016
1708350376.3552 0.501 -0.000 -0.0031 0.501 -0.0031
1708350376.3632 0.504 -0.000 -0.0031 0.504 -0.0031
1708350376.3710 0.506 -0.000 0.0016 0.506 0.0016
1708350376.3787 0.508 -0.000 0.0031 0.508 0.0031
1708350376.3873 0.510 -0.000 -0.0000 0.510 -0.0000
1708350376.3947 0.513 -0.000 -0.0047 0.513 -0.0047
1708350376.4027 0.515 -0.000 -0.0031 0.515 -0.0031
1708350376.4111 0.518 -0.000 0.0016 0.518 0.0016
1708350376.4188 0.520 -0.000 -0.0000 0.520 -0.0000
1708350376.4267 0.522 -0.000 -0.0047 0.522 -0.0047
1708350376.4352 0.525 -0.000 -0.0062 0.525 -0.0062
1708350376.4424 0.528 -0.000 -0.0016 0.528 -0.0016
1708350376.4504 0.530 -0.000 0.0031 0.530 0.0031
1708350376.4587 0.531 -0.000 -0.0000 0.531 -0.0000
1708350376.4668 0.534 -0.000 -0.0047 0.534 -0.0047
1708350376.4747 0.537 -0.000 -0.0047 0.537 -0.0047
1708350376.4831 0.540 -0.000 0.0016 0.540 0.0016
1708350376.4912 0.542 -0.000 0.0047 0.542 0.0047
1708350376.4988 0.544 -0.000 0.0031 0.544 0.0031
1708350376.5070 0.546 -0.000 -0.0031 0.546 -0.0031
1708350376.5150 0.549 -0.000 -0.0047 0.549 -0.0047
1708350376.5230 0.552 -0.000 0.0016 0.552 0.0016
1708350376.5304 0.554 -0.000 0.0047 0.554 0.0047
1708350376.5388 0.556 -0.000 0.0031 0.556 0.0031
1708350376.5468 0.558 -0.000 -0.0016 0.558 -0.0016
1708350376.5551 0.561 -0.000 -0.0062 0.561 -0.0062
1708350376.5632 0.564 -0.000 -0.0000 0.564 -0.0000
1708350376.5711 0.566 -0.000 0.0047 0.566 0.0047
1708350376.5783 0.568 -0.000 0.0031 0.568 0.0031
1708350376.5868 0.570 -0.000 -0.0031 0.570 -0.0031
1708350376.5947 0.573 -0.000 -0.0047 0.573 -0.0047
1708350376.6030 0.575 -0.000 -0.0000 0.575 -0.0000
1708350376.6103 0.578 -0.000 0.0047 0.578 0.0047
1708350376.6190 0.580 -0.000 0.0047 0.580 0.0047
1708350376.6273 0.582 -0.000 -0.0016 0.582 -0.0016
1708350376.6347 0.585 -0.000 -0.0047 0.585 -0.0047
1708350376.6425 0.587 -0.000 -0.0016 0.587 -0.0016
1708350376.6509 0.590 -0.000 0.0016 0.590 0.0016
1708350376.6593 0.592 -0.000 0.0016 0.592 0.0016
1708350376.6669 0.594 -0.000 -0.0016 0.594 -0.0016
1708350376.6752 0.597 -0.000 -0.0047 0.597 -0.0047
1708350376.6824 0.599 -0.000 -0.0000 0.599 -0.0000
1708350376.6906 0.602 -0.000 0.0047 0.602 0.0047
1708350376.6991 0.604 -0.000 0.0031 0.604 0.0031
1708350376.7065 0.606 -0.000 -0.0031 0.606 -0.0031
1708350376.7152 0.609 -0.000 -0.0047 0.609 -0.0047
1708350376.7225 0.611 -0.000 -0.0000 0.611 -0.0000
1708350376.7312 0.614 -0.000 0.0062 0.614 0.0062
1708350376.7391 0.616 -0.000 0.0047 0.616 0.0047
1708350376.7473 0.618 -0.000 -0.0016 0.618 -0.0016
1708350376.7546 0.621 -0.000 -0.0047 0.621 -0.0047
1708350376.7633 0.624 -0.000 -0.0000 0.624 -0.0000
1708350376.7705 0.626 -0.000 0.0047 0.626 0.0047
1708350376.7788 0.628 -0.000 0.0062 0.628 0.0062
1708350376.7869 0.630 -0.000 0.0016 0.630 0.0016
1708350376.7952 0.633 -0.000 -0.0016 0.633 -0.0016
1708350376.8026 0.635 -0.000 0.0016 0.635 0.0016
1708350376.8105 0.638 -0.000 0.0047 0.638 0.0047
1708350376.8194 0.640 -0.000 0.0047 0.640 0.0047
1708350376.8268 0.642 -0.000 -0.0016 0.642 -0.0016
1708350376.8347 0.644 -0.000 -0.0047 0.644 -0.0047
1708350376.8428 0.647 -0.000 0.0016 0.647 0.0016
1708350376.8511 0.649 -0.000 0.0062 0.649 0.0062
1708350376.8590 0.651 -0.000 0.0031 0.651 0.0031
1708350376.8669 0.654 -0.000 -0.0031 0.654 -0.0031
1708350376.8753 0.657 -0.000 -0.0031 0.657 -0.0031
1708350376.8833 0.659 -0.000 0.0016 0.659 0.0016
1708350376.8905 0.661 -0.000 0.0047 0.661 0.0047
1708350376.8991 0.664 -0.000 0.0016 0.664 0.0016
1708350376.9070 0.666 -0.000 -0.0031 0.666 -0.0031
1708350376.9148 0.669 -0.000 -0.0031 0.669 -0.0031
1708350376.9232 0.671 -0.000 -0.0000 0.671 -0.0000
1708350376.9312 0.673 -0.000 0.0047 0.673 0.0047
1708350376.9385 0.676 -0.000 0.0031 0.676 0.0031
1708350376.9470 0.678 -0.000 -0.0031 0.678 -0.0031
1708350376.9566 0.680 -0.000 -0.0047 0.680 -0.0047
1708350376.9636 0.683 -0.000 0.0016 0.683 0.0016
1708350376.9710 0.686 -0.000 0.0031 0.686 0.0031
1708350376.9791 0.688 -0.000 0.0016 0.688 0.0016
1708350376.9865 0.690 -0.000 -0.0016 0.690 -0.0016
1708350376.9950 0.692 -0.000 -0.0000 0.692 -0.0000
1708350377.0026 0.695 -0.000 0.0031 0.695 0.0031
1708350377.0111 0.698 -0.000 0.0016 0.698 0.0016
1708350377.0191 0.700 -0.000 -0.0000 0.700 -0.0000
1708350377.0272 0.702 -0.000 -0.0000 0.702 -0.0000
1708350377.0345 0.704 -0.000 0.0016 0.704 0.0016
1708350377.0430 0.707 -0.000 0.0016 0.707 0.0016
1708350377.0510 0.709 -0.000 -0.0016 0.709 -0.0016
1708350377.0584 0.712 -0.000 -0.0016 0.712 -0.0016
1708350377.0665 0.714 -0.000 0.0000 0.714 -0.0000
1708350377.0746 0.716 -0.000 0.0016 0.716 0.0016
1708350377.0832 0.719 -0.000 0.0016 0.719 0.0016
1708350377.0905 0.721 -0.000 -0.0016 0.721 -0.0016
1708350377.0987 0.723 -0.000 -0.0031 0.723 -0.0031
1708350377.1071 0.726 -0.000 -0.0016 0.726 -0.0016
1708350377.1146 0.728 -0.000 -0.0016 0.728 -0.0016
1708350377.1225 0.731 -0.000 -0.0016 0.731 -0.0016
1708350377.1310 0.733 -0.000 -0.0016 0.733 -0.0016
1708350377.1393 0.735 -0.000 -0.0016 0.735 -0.0016
1708350377.1473 0.737 -0.000 -0.0016 0.737 -0.0016
1708350377.1546 0.740 -0.000 -0.0047 0.740 -0.0047
1708350377.1637 0.743 -0.000 -0.0031 0.743 -0.0031
1708350377.1705 0.746 -0.000 -0.0016 0.746 -0.0016
1708350377.1788 0.747 -0.000 -0.0016 0.747 -0.0016
1708350377.1871 0.749 -0.000 -0.0016 0.749 -0.0016
1708350377.1951 0.752 -0.000 -0.0016 0.752 -0.0016
1708350377.2024 0.755 -0.000 -0.0031 0.755 -0.0031
1708350377.2107 0.757 -0.000 -0.0031 0.757 -0.0031
1708350377.2184 0.759 -0.000 -0.0016 0.759 -0.0016
1708350377.2268 0.761 -0.000 -0.0016 0.761 -0.0016
1708350377.2351 0.764 -0.000 -0.0016 0.764 -0.0016
1708350377.2431 0.767 -0.000 -0.0016 0.767 -0.0016
1708350377.2504 0.769 -0.000 -0.0031 0.769 -0.0031
1708350377.2589 0.771 -0.000 -0.0016 0.771 -0.0016
1708350377.2664 0.773 -0.000 0.0016 0.773 0.0016
1708350377.2747 0.776 -0.000 0.0000 0.776 0.0000
1708350377.2831 0.779 -0.000 -0.0016 0.779 -0.0016
1708350377.2911 0.781 -0.000 -0.0031 0.781 -0.0031
1708350377.2993 0.783 -0.000 -0.0031 0.783 -0.0031
1708350377.3066 0.785 -0.000 0.0000 0.785 0.0000
1708350377.3151 0.788 -0.000 0.0031 0.788 0.0031
1708350377.3224 0.791 -0.000 0.0000 0.791 0.0000
1708350377.3308 0.793 -0.000 -0.0047 0.793 -0.0047
1708350377.3389 0.795 -0.000 -0.0047 0.795 -0.0047
1708350377.3473 0.797 -0.000 0.0000 0.797 0.0000
1708350377.3546 0.800 -0.000 0.0031 0.800 0.0031
1708350377.3633 0.802 -0.000 0.0016 0.802 0.0016
1708350377.3706 0.805 -0.000 -0.0016 0.805 -0.0016
1708350377.3791 0.807 -0.000 0.0000 0.807 0.0000
1708350377.3871 0.809 -0.000 0.0031 0.809 0.0031
1708350377.3954 0.812 -0.000 0.0047 0.812 0.0047
1708350377.4026 0.815 -0.000 0.0031 0.815 0.0031
1708350377.4106 0.817 -0.000 -0.0016 0.817 -0.0016
1708350377.4186 0.819 -0.000 0.0000 0.819 0.0000
1708350377.4271 0.821 -0.000 0.0031 0.821 0.0031
1708350377.4351 0.824 -0.000 0.0062 0.824 0.0062
1708350377.4424 0.827 -0.000 0.0016 0.827 0.0016
1708350377.4506 0.829 -0.000 -0.0016 0.829 -0.0016
1708350377.4585 0.830 -0.000 -0.0016 0.830 -0.0016
1708350377.4666 0.833 -0.000 0.0000 0.833 0.0000
1708350377.4751 0.836 -0.000 0.0031 0.836 0.0031
1708350377.4831 0.839 -0.000 0.0016 0.839 0.0016
1708350377.4908 0.841 -0.000 0.0000 0.841 0.0000
1708350377.4987 0.842 -0.000 -0.0016 0.842 -0.0016
1708350377.5065 0.845 -0.000 0.0000 0.845 0.0000
1708350377.5145 0.848 -0.000 0.0000 0.848 0.0000
1708350377.5230 0.851 -0.000 0.0000 0.851 0.0000
1708350377.5310 0.852 -0.000 0.0000 0.852 0.0000
1708350377.5392 0.855 -0.000 -0.0016 0.855 -0.0016
1708350377.5465 0.857 -0.000 -0.0016 0.857 -0.0016
1708350377.5545 0.860 -0.000 0.0000 0.860 -0.0000
1708350377.5636 0.862 -0.000 0.0016 0.862 0.0016
1708350377.5709 0.864 -0.000 0.0031 0.864 0.0031
1708350377.5789 0.866 -0.000 0.0016 0.866 0.0016
1708350377.5871 0.869 -0.000 0.0016 0.869 0.0016
1708350377.5944 0.872 -0.000 0.0016 0.872 0.0016
1708350377.6025 0.874 -0.000 0.0016 0.874 0.0016
1708350377.6110 0.875 -0.000 0.0031 0.875 0.0031
1708350377.6190 0.878 -0.000 0.0031 0.878 0.0031
1708350377.6269 0.881 -0.000 0.0016 0.881 0.0016
1708350377.6351 0.884 -0.000 0.0016 0.884 0.0016
1708350377.6424 0.886 -0.000 0.0016 0.886 0.0016
1708350377.6504 0.888 -0.000 0.0016 0.888 0.0016
1708350377.6588 0.890 -0.000 -0.0016 0.890 -0.0016
1708350377.6669 0.893 -0.000 -0.0031 0.893 -0.0031
1708350377.6746 0.896 -0.000 0.0016 0.896 0.0016
