% Pose without folding and reset (log_20240224_134656.331/log_pose_abs.txt)
% 1 	Time (sec)
% 2,3 	Position x,y (m)
% 4 	heading (rad)
% 5 	Driven distance (m) - signed
% 6 	Turned angle (rad) - signed
1708778816.9402 0.000 0.000 0.0000 0.000 0.0000
1708778816.9483 0.000 0.000 0.0000 0.000 0.0000
1708778816.9561 0.000 0.000 0.0000 0.000 0.0000
1708778816.9628 0.000 0.000 0.0000 0.000 0.0000
1708778816.9710 0.000 0.000 0.0000 0.000 0.0000
1708778816.9792 0.000 0.000 0.0000 0.000 0.0000
1708778816.9870 0.000 0.000 0.0000 0.000 0.0000
1708778816.9954 0.000 0.000 0.0000 0.000 0.0000
1708778817.0032 0.000 0.000 0.0000 0.000 0.0000
1708778817.0114 0.000 0.000 0.0000 0.000 0.0000
1708778817.0195 0.000 0.000 0.0000 0.000 0.0000
1708778817.0278 0.000 0.000 0.0000 0.000 0.0000
1708778817.0358 0.000 0.000 0.0000 0.000 0.0000
1708778817.0433 0.000 0.000 0.0000 0.000 0.0000
1708778817.0515 0.000 0.000 0.0000 0.000 0.0000
1708778817.0593 0.000 0.000 0.0000 0.000 0.0000
1708778817.0679 0.001 0.000 0.0093 0.001 0.0093
1708778817.0753 0.004 0.000 0.0062 0.004 0.0062
1708778817.0835 0.006 0.000 0.0016 0.006 0.0016
1708778817.0914 0.008 0.000 0.0047 0.008 0.0047
1708778817.0992 0.011 0.000 0.0031 0.011 0.0031
1708778817.1069 0.015 0.000 0.0000 0.015 0.0000
1708778817.1151 0.019 0.000 -0.0016 0.019 -0.0016
1708778817.1234 0.022 0.000 -0.0047 0.022 -0.0047
1708778817.1365 0.027 0.000 -0.0093 0.027 -0.0093
1708778817.1393 0.031 -0.000 -0.0140 0.031 -0.0140
1708778817.1474 0.036 -0.000 -0.0186 0.036 -0.0186
1708778817.1555 0.038 -0.000 -0.0186 0.038 -0.0186
1708778817.1631 0.041 -0.000 -0.0202 0.041 -0.0202
1708778817.1707 0.048 -0.000 -0.0217 0.048 -0.0217
1708778817.1788 0.054 -0.001 -0.0310 0.054 -0.0310
1708778817.1878 0.058 -0.001 -0.0419 0.058 -0.0419
1708778817.1954 0.062 -0.001 -0.0481 0.062 -0.0481
1708778817.2036 0.067 -0.001 -0.0512 0.067 -0.0512
1708778817.2111 0.072 -0.001 -0.0559 0.072 -0.0559
1708778817.2195 0.077 -0.002 -0.0621 0.077 -0.0621
1708778817.2275 0.082 -0.002 -0.0636 0.082 -0.0636
1708778817.2367 0.087 -0.002 -0.0683 0.087 -0.0683
1708778817.2433 0.093 -0.003 -0.0714 0.093 -0.0714
1708778817.2507 0.099 -0.003 -0.0730 0.099 -0.0730
1708778817.2592 0.105 -0.004 -0.0761 0.105 -0.0761
1708778817.2667 0.110 -0.004 -0.0807 0.111 -0.0807
1708778817.2754 0.117 -0.005 -0.0854 0.117 -0.0854
1708778817.2840 0.124 -0.005 -0.0869 0.124 -0.0869
1708778817.2914 0.130 -0.006 -0.0885 0.130 -0.0885
1708778817.2990 0.136 -0.006 -0.0900 0.136 -0.0900
1708778817.3072 0.142 -0.007 -0.0931 0.142 -0.0931
1708778817.3154 0.147 -0.007 -0.0978 0.148 -0.0978
1708778817.3232 0.154 -0.008 -0.0993 0.154 -0.0993
1708778817.3319 0.160 -0.009 -0.0993 0.160 -0.0993
1708778817.3396 0.165 -0.009 -0.1009 0.166 -0.1009
1708778817.3471 0.172 -0.010 -0.1040 0.172 -0.1040
1708778817.3558 0.178 -0.010 -0.1056 0.178 -0.1056
1708778817.3629 0.183 -0.011 -0.1056 0.183 -0.1056
1708778817.3708 0.189 -0.012 -0.1071 0.189 -0.1071
1708778817.3792 0.194 -0.012 -0.1102 0.194 -0.1102
1708778817.3875 0.199 -0.013 -0.1133 0.200 -0.1133
1708778817.3955 0.205 -0.013 -0.1133 0.206 -0.1133
1708778817.4033 0.211 -0.014 -0.1133 0.212 -0.1133
1708778817.4114 0.217 -0.015 -0.1149 0.217 -0.1149
1708778817.4191 0.222 -0.015 -0.1149 0.223 -0.1149
1708778817.4273 0.227 -0.016 -0.1149 0.228 -0.1149
1708778817.4351 0.233 -0.017 -0.1133 0.234 -0.1133
1708778817.4428 0.239 -0.017 -0.1118 0.240 -0.1118
1708778817.4514 0.243 -0.018 -0.1102 0.244 -0.1102
1708778817.4596 0.249 -0.018 -0.1102 0.250 -0.1102
1708778817.4673 0.255 -0.019 -0.1087 0.256 -0.1087
1708778817.4755 0.261 -0.020 -0.1056 0.262 -0.1056
1708778817.4828 0.266 -0.020 -0.1056 0.267 -0.1056
1708778817.4916 0.271 -0.021 -0.1009 0.272 -0.1009
1708778817.4992 0.277 -0.021 -0.0947 0.278 -0.0947
1708778817.5074 0.283 -0.022 -0.0931 0.284 -0.0931
1708778817.5155 0.288 -0.022 -0.0931 0.289 -0.0931
1708778817.5237 0.293 -0.023 -0.0900 0.295 -0.0900
1708778817.5308 0.299 -0.023 -0.0807 0.300 -0.0807
1708778817.5396 0.305 -0.024 -0.0761 0.306 -0.0761
1708778817.5472 0.310 -0.024 -0.0730 0.311 -0.0730
1708778817.5554 0.316 -0.025 -0.0699 0.317 -0.0699
1708778817.5633 0.322 -0.025 -0.0636 0.323 -0.0636
1708778817.5714 0.327 -0.025 -0.0559 0.329 -0.0559
1708778817.5796 0.332 -0.026 -0.0512 0.333 -0.0512
1708778817.5871 0.338 -0.026 -0.0466 0.339 -0.0466
1708778817.5952 0.344 -0.026 -0.0404 0.345 -0.0404
1708778817.6031 0.350 -0.026 -0.0341 0.351 -0.0341
1708778817.6112 0.355 -0.027 -0.0279 0.356 -0.0279
1708778817.6198 0.361 -0.027 -0.0202 0.362 -0.0202
1708778817.6271 0.367 -0.027 -0.0155 0.368 -0.0155
1708778817.6347 0.373 -0.027 -0.0093 0.374 -0.0093
1708778817.6432 0.378 -0.027 -0.0047 0.379 -0.0047
1708778817.6513 0.383 -0.027 0.0031 0.384 0.0031
1708778817.6590 0.389 -0.027 0.0109 0.390 0.0109
1708778817.6673 0.394 -0.027 0.0171 0.395 0.0171
1708778817.6751 0.400 -0.027 0.0217 0.401 0.0217
1708778817.6836 0.406 -0.026 0.0295 0.407 0.0295
1708778817.6919 0.411 -0.026 0.0404 0.412 0.0404
1708778817.6997 0.417 -0.026 0.0481 0.418 0.0481
1708778817.7069 0.423 -0.026 0.0528 0.424 0.0528
1708778817.7152 0.428 -0.025 0.0574 0.429 0.0574
1708778817.7233 0.433 -0.025 0.0621 0.434 0.0621
1708778817.7315 0.438 -0.025 0.0730 0.440 0.0730
1708778817.7398 0.444 -0.024 0.0792 0.446 0.0792
1708778817.7469 0.450 -0.024 0.0823 0.452 0.0823
1708778817.7553 0.456 -0.023 0.0885 0.457 0.0885
1708778817.7634 0.461 -0.023 0.0947 0.462 0.0947
1708778817.7715 0.466 -0.022 0.1009 0.468 0.1009
1708778817.7796 0.473 -0.022 0.1071 0.474 0.1071
1708778817.7868 0.478 -0.021 0.1133 0.480 0.1133
1708778817.7950 0.483 -0.021 0.1180 0.484 0.1180
1708778817.8037 0.487 -0.020 0.1242 0.489 0.1242
1708778817.8110 0.493 -0.019 0.1319 0.495 0.1319
1708778817.8193 0.500 -0.018 0.1366 0.501 0.1366
1708778817.8270 0.506 -0.018 0.1428 0.507 0.1428
1708778817.8352 0.511 -0.017 0.1490 0.512 0.1490
1708778817.8434 0.516 -0.016 0.1537 0.517 0.1537
1708778817.8507 0.521 -0.015 0.1568 0.523 0.1568
1708778817.8598 0.527 -0.014 0.1630 0.529 0.1630
1708778817.8669 0.533 -0.013 0.1676 0.535 0.1676
1708778817.8747 0.538 -0.012 0.1707 0.540 0.1707
1708778817.8830 0.543 -0.012 0.1723 0.545 0.1723
1708778817.8913 0.548 -0.011 0.1739 0.551 0.1739
1708778817.8987 0.555 -0.009 0.1785 0.557 0.1785
1708778817.9077 0.560 -0.008 0.1816 0.563 0.1816
1708778817.9148 0.565 -0.008 0.1832 0.568 0.1832
1708778817.9236 0.570 -0.007 0.1832 0.573 0.1832
1708778817.9315 0.576 -0.006 0.1832 0.579 0.1832
1708778817.9387 0.582 -0.004 0.1863 0.585 0.1863
1708778817.9469 0.587 -0.003 0.1894 0.590 0.1894
1708778817.9551 0.592 -0.002 0.1940 0.595 0.1940
1708778817.9633 0.598 -0.001 0.1940 0.601 0.1940
1708778817.9710 0.604 -0.000 0.1925 0.607 0.1925
1708778817.9792 0.610 0.001 0.1925 0.613 0.1925
1708778817.9875 0.615 0.002 0.1925 0.618 0.1925
1708778817.9951 0.620 0.003 0.1925 0.624 0.1925
1708778818.0029 0.626 0.004 0.1940 0.629 0.1940
1708778818.0112 0.631 0.005 0.1909 0.635 0.1909
1708778818.0195 0.637 0.006 0.1925 0.640 0.1925
1708778818.0278 0.642 0.007 0.1894 0.646 0.1894
1708778818.0348 0.648 0.008 0.1878 0.652 0.1878
1708778818.0435 0.654 0.009 0.1847 0.658 0.1847
1708778818.0513 0.658 0.010 0.1847 0.663 0.1847
1708778818.0596 0.664 0.011 0.1847 0.668 0.1847
1708778818.0675 0.670 0.012 0.1816 0.674 0.1816
1708778818.0757 0.676 0.014 0.1770 0.680 0.1770
1708778818.0837 0.681 0.014 0.1739 0.685 0.1739
1708778818.0914 0.686 0.015 0.1723 0.691 0.1723
1708778818.0992 0.692 0.016 0.1676 0.697 0.1676
1708778818.1075 0.698 0.017 0.1614 0.702 0.1614
1708778818.1154 0.703 0.018 0.1599 0.708 0.1599
1708778818.1237 0.708 0.019 0.1583 0.713 0.1583
1708778818.1306 0.714 0.020 0.1537 0.719 0.1537
1708778818.1396 0.719 0.021 0.1475 0.724 0.1475
1708778818.1483 0.724 0.021 0.1444 0.729 0.1444
1708778818.1557 0.730 0.022 0.1428 0.735 0.1428
1708778818.1636 0.736 0.023 0.1366 0.741 0.1366
1708778818.1716 0.742 0.024 0.1319 0.747 0.1319
1708778818.1788 0.747 0.025 0.1257 0.752 0.1257
1708778818.1876 0.752 0.025 0.1211 0.757 0.1211
1708778818.1958 0.758 0.026 0.1180 0.763 0.1180
1708778818.2026 0.764 0.027 0.1118 0.769 0.1118
1708778818.2110 0.769 0.027 0.1056 0.775 0.1056
1708778818.2191 0.774 0.028 0.1009 0.779 0.1009
1708778818.2274 0.779 0.028 0.0962 0.785 0.0962
1708778818.2351 0.786 0.029 0.0916 0.791 0.0916
1708778818.2433 0.792 0.029 0.0854 0.797 0.0854
1708778818.2511 0.797 0.030 0.0776 0.802 0.0776
1708778818.2589 0.802 0.030 0.0730 0.807 0.0730
1708778818.2670 0.807 0.031 0.0699 0.813 0.0699
1708778818.2754 0.813 0.031 0.0636 0.819 0.0636
1708778818.2832 0.818 0.031 0.0574 0.824 0.0574
1708778818.2913 0.824 0.032 0.0528 0.829 0.0528
1708778818.2991 0.830 0.032 0.0497 0.836 0.0497
1708778818.3067 0.836 0.032 0.0450 0.841 0.0450
1708778818.3160 0.840 0.032 0.0404 0.846 0.0404
1708778818.3230 0.846 0.033 0.0357 0.852 0.0357
1708778818.3311 0.852 0.033 0.0310 0.858 0.0310
1708778818.3393 0.858 0.033 0.0279 0.864 0.0279
1708778818.3471 0.863 0.033 0.0248 0.869 0.0248
1708778818.3547 0.869 0.033 0.0186 0.874 0.0186
1708778818.3639 0.874 0.033 0.0155 0.880 0.0155
1708778818.3713 0.880 0.033 0.0155 0.886 0.0155
1708778818.3793 0.886 0.033 0.0140 0.892 0.0140
1708778818.3874 0.891 0.034 0.0078 0.897 0.0078
1708778818.3954 0.896 0.034 0.0031 0.902 0.0031
1708778818.4029 0.902 0.034 0.0016 0.908 0.0016
1708778818.4111 0.908 0.034 -0.0000 0.914 -0.0000
1708778818.4194 0.914 0.034 -0.0016 0.919 -0.0016
1708778818.4271 0.919 0.034 -0.0047 0.925 -0.0047
1708778818.4350 0.924 0.034 -0.0062 0.930 -0.0062
1708778818.4430 0.930 0.033 -0.0062 0.936 -0.0062
1708778818.4514 0.936 0.033 -0.0078 0.941 -0.0078
1708778818.4596 0.941 0.033 -0.0109 0.947 -0.0109
1708778818.4671 0.947 0.033 -0.0109 0.953 -0.0109
1708778818.4749 0.953 0.033 -0.0124 0.958 -0.0124
1708778818.4831 0.958 0.033 -0.0124 0.963 -0.0124
1708778818.4912 0.963 0.033 -0.0109 0.969 -0.0109
1708778818.4997 0.969 0.033 -0.0109 0.975 -0.0109
1708778818.5078 0.975 0.033 -0.0124 0.981 -0.0124
1708778818.5149 0.980 0.033 -0.0124 0.986 -0.0124
1708778818.5237 0.986 0.033 -0.0078 0.991 -0.0078
1708778818.5317 0.991 0.033 -0.0047 0.997 -0.0047
1708778818.5388 0.997 0.033 -0.0031 1.003 -0.0031
1708778818.5474 1.003 0.033 -0.0031 1.009 -0.0031
1708778818.5555 1.008 0.033 -0.0047 1.013 -0.0047
1708778818.5626 1.013 0.033 -0.0016 1.019 -0.0016
1708778818.5715 1.019 0.033 0.0031 1.024 0.0031
1708778818.5794 1.024 0.033 0.0047 1.030 0.0047
1708778818.5876 1.030 0.033 0.0047 1.036 0.0047
1708778818.5954 1.036 0.033 0.0078 1.042 0.0078
1708778818.6032 1.042 0.033 0.0140 1.047 0.0140
1708778818.6114 1.046 0.033 0.0171 1.052 0.0171
1708778818.6197 1.052 0.033 0.0171 1.057 0.0171
1708778818.6270 1.058 0.033 0.0186 1.063 0.0186
1708778818.6352 1.064 0.033 0.0217 1.069 0.0217
1708778818.6430 1.069 0.033 0.0264 1.075 0.0264
1708778818.6518 1.075 0.034 0.0310 1.080 0.0310
1708778818.6589 1.080 0.034 0.0310 1.086 0.0310
1708778818.6674 1.086 0.034 0.0326 1.092 0.0326
1708778818.6756 1.092 0.034 0.0373 1.097 0.0373
1708778818.6828 1.097 0.034 0.0419 1.103 0.0419
1708778818.6915 1.102 0.035 0.0435 1.108 0.0435
1708778818.6992 1.108 0.035 0.0450 1.114 0.0450
1708778818.7075 1.114 0.035 0.0481 1.119 0.0481
1708778818.7151 1.119 0.035 0.0543 1.125 0.0543
1708778818.7232 1.125 0.036 0.0574 1.131 0.0574
1708778818.7315 1.131 0.036 0.0574 1.136 0.0574
1708778818.7392 1.136 0.036 0.0605 1.142 0.0605
1708778818.7470 1.142 0.037 0.0652 1.147 0.0652
1708778818.7551 1.147 0.037 0.0683 1.153 0.0683
1708778818.7629 1.153 0.037 0.0730 1.159 0.0730
1708778818.7711 1.158 0.038 0.0761 1.164 0.0761
1708778818.7794 1.164 0.038 0.0792 1.170 0.0792
1708778818.7871 1.170 0.039 0.0838 1.176 0.0838
1708778818.7953 1.176 0.039 0.0854 1.182 0.0854
1708778818.8029 1.181 0.040 0.0900 1.187 0.0900
1708778818.8107 1.187 0.040 0.0978 1.193 0.0978
1708778818.8190 1.192 0.041 0.0993 1.198 0.0993
1708778818.8273 1.197 0.041 0.0978 1.203 0.0978
1708778818.8350 1.203 0.042 0.1009 1.209 0.1009
1708778818.8432 1.209 0.043 0.1056 1.215 0.1056
1708778818.8512 1.214 0.043 0.1118 1.220 0.1118
1708778818.8592 1.220 0.044 0.1149 1.226 0.1149
1708778818.8674 1.226 0.044 0.1149 1.232 0.1149
1708778818.8756 1.231 0.045 0.1164 1.237 0.1164
1708778818.8835 1.237 0.046 0.1195 1.243 0.1195
1708778818.8914 1.243 0.046 0.1242 1.249 0.1242
1708778818.8992 1.248 0.047 0.1257 1.254 0.1257
1708778818.9071 1.254 0.048 0.1257 1.260 0.1257
1708778818.9153 1.259 0.049 0.1304 1.265 0.1304
1708778818.9235 1.264 0.049 0.1350 1.271 0.1350
1708778818.9309 1.270 0.050 0.1366 1.277 0.1366
1708778818.9399 1.276 0.051 0.1350 1.282 0.1350
1708778818.9467 1.281 0.051 0.1366 1.287 0.1366
1708778818.9555 1.286 0.052 0.1397 1.293 0.1397
1708778818.9631 1.292 0.053 0.1413 1.299 0.1413
1708778818.9714 1.297 0.054 0.1444 1.304 0.1444
1708778818.9791 1.303 0.055 0.1444 1.310 0.1444
1708778818.9871 1.309 0.055 0.1444 1.315 0.1444
1708778818.9955 1.314 0.056 0.1475 1.321 0.1475
1708778819.0027 1.319 0.057 0.1506 1.326 0.1506
1708778819.0110 1.325 0.058 0.1506 1.332 0.1506
1708778819.0193 1.330 0.059 0.1521 1.337 0.1521
1708778819.0268 1.336 0.060 0.1537 1.343 0.1537
1708778819.0351 1.342 0.060 0.1552 1.349 0.1552
1708778819.0432 1.347 0.061 0.1568 1.354 0.1568
1708778819.0517 1.353 0.062 0.1568 1.360 0.1568
1708778819.0598 1.358 0.063 0.1583 1.366 0.1583
1708778819.0670 1.364 0.064 0.1599 1.372 0.1599
1708778819.0756 1.370 0.065 0.1614 1.377 0.1614
1708778819.0839 1.374 0.066 0.1630 1.382 0.1630
1708778819.0910 1.380 0.067 0.1630 1.388 0.1630
1708778819.0993 1.386 0.068 0.1630 1.394 0.1630
1708778819.1075 1.391 0.068 0.1645 1.399 0.1645
1708778819.1155 1.397 0.069 0.1676 1.405 0.1676
1708778819.1232 1.402 0.070 0.1661 1.411 0.1661
1708778819.1314 1.408 0.071 0.1645 1.416 0.1645
1708778819.1387 1.413 0.072 0.1645 1.422 0.1645
1708778819.1474 1.418 0.073 0.1661 1.427 0.1661
1708778819.1557 1.424 0.074 0.1661 1.432 0.1661
1708778819.1627 1.430 0.075 0.1661 1.438 0.1661
1708778819.1717 1.436 0.076 0.1692 1.445 0.1692
1708778819.1799 1.441 0.077 0.1692 1.450 0.1692
1708778819.1870 1.446 0.078 0.1661 1.455 0.1661
1708778819.1948 1.451 0.079 0.1645 1.460 0.1645
1708778819.2038 1.457 0.080 0.1661 1.466 0.1661
1708778819.2109 1.463 0.081 0.1676 1.472 0.1676
1708778819.2187 1.469 0.081 0.1661 1.478 0.1661
1708778819.2271 1.473 0.082 0.1661 1.483 0.1661
1708778819.2354 1.478 0.083 0.1661 1.487 0.1661
1708778819.2432 1.485 0.084 0.1692 1.494 0.1692
1708778819.2512 1.491 0.085 0.1692 1.500 0.1692
1708778819.2596 1.496 0.086 0.1676 1.505 0.1676
1708778819.2674 1.501 0.087 0.1645 1.510 0.1645
1708778819.2756 1.506 0.088 0.1614 1.516 0.1614
1708778819.2827 1.513 0.089 0.1599 1.522 0.1599
1708778819.2916 1.518 0.090 0.1614 1.528 0.1614
1708778819.2992 1.522 0.090 0.1614 1.532 0.1614
1708778819.3075 1.528 0.091 0.1583 1.538 0.1583
1708778819.3153 1.534 0.092 0.1552 1.544 0.1552
1708778819.3239 1.540 0.093 0.1568 1.550 0.1568
1708778819.3311 1.545 0.094 0.1568 1.555 0.1568
1708778819.3388 1.550 0.095 0.1537 1.560 0.1537
1708778819.3477 1.556 0.096 0.1490 1.566 0.1490
1708778819.3548 1.561 0.097 0.1490 1.571 0.1490
1708778819.3635 1.567 0.097 0.1490 1.577 0.1490
1708778819.3717 1.572 0.098 0.1475 1.583 0.1475
1708778819.3789 1.578 0.099 0.1444 1.588 0.1444
1708778819.3867 1.584 0.100 0.1428 1.594 0.1428
1708778819.3951 1.589 0.101 0.1444 1.600 0.1444
1708778819.4029 1.594 0.101 0.1444 1.605 0.1444
1708778819.4107 1.600 0.102 0.1413 1.610 0.1413
1708778819.4199 1.605 0.103 0.1382 1.616 0.1382
1708778819.4274 1.611 0.104 0.1350 1.621 0.1350
1708778819.4347 1.616 0.104 0.1335 1.627 0.1335
1708778819.4432 1.622 0.105 0.1335 1.633 0.1335
1708778819.4508 1.627 0.106 0.1335 1.638 0.1335
1708778819.4596 1.632 0.107 0.1319 1.643 0.1319
1708778819.4671 1.638 0.107 0.1288 1.649 0.1288
1708778819.4754 1.644 0.108 0.1242 1.655 0.1242
1708778819.4835 1.649 0.109 0.1257 1.660 0.1257
1708778819.4910 1.654 0.109 0.1288 1.666 0.1288
1708778819.4988 1.660 0.110 0.1257 1.671 0.1257
1708778819.5067 1.666 0.111 0.1211 1.677 0.1211
1708778819.5159 1.671 0.111 0.1195 1.682 0.1195
1708778819.5229 1.677 0.112 0.1226 1.688 0.1226
1708778819.5308 1.683 0.113 0.1242 1.694 0.1242
1708778819.5391 1.688 0.114 0.1211 1.699 0.1211
1708778819.5470 1.693 0.114 0.1164 1.705 0.1164
1708778819.5547 1.699 0.115 0.1149 1.711 0.1149
1708778819.5640 1.705 0.116 0.1180 1.716 0.1180
1708778819.5709 1.710 0.116 0.1195 1.722 0.1195
1708778819.5787 1.716 0.117 0.1195 1.727 0.1195
1708778819.5870 1.721 0.117 0.1149 1.733 0.1149
1708778819.5952 1.726 0.118 0.1118 1.738 0.1118
1708778819.6036 1.732 0.119 0.1102 1.744 0.1102
1708778819.6116 1.739 0.119 0.1102 1.750 0.1102
1708778819.6188 1.744 0.120 0.1102 1.756 0.1102
1708778819.6277 1.749 0.121 0.1102 1.761 0.1102
1708778819.6359 1.754 0.121 0.1102 1.766 0.1102
1708778819.6434 1.760 0.122 0.1071 1.772 0.1071
1708778819.6511 1.766 0.122 0.1024 1.778 0.1024
1708778819.6592 1.772 0.123 0.1024 1.784 0.1024
1708778819.6674 1.777 0.124 0.1024 1.789 0.1024
1708778819.6752 1.782 0.124 0.1009 1.794 0.1009
1708778819.6833 1.788 0.125 0.0978 1.800 0.0978
1708778819.6915 1.794 0.125 0.0978 1.806 0.0978
1708778819.6989 1.799 0.126 0.0962 1.811 0.0962
1708778819.7070 1.804 0.126 0.0931 1.816 0.0931
1708778819.7152 1.810 0.127 0.0931 1.822 0.0931
1708778819.7230 1.816 0.127 0.0931 1.828 0.0931
1708778819.7312 1.821 0.128 0.0900 1.834 0.0900
1708778819.7394 1.826 0.128 0.0885 1.839 0.0885
1708778819.7468 1.832 0.129 0.0900 1.844 0.0900
1708778819.7551 1.838 0.129 0.0885 1.850 0.0885
1708778819.7634 1.844 0.130 0.0869 1.856 0.0869
1708778819.7711 1.849 0.130 0.0885 1.861 0.0885
1708778819.7797 1.854 0.131 0.0900 1.867 0.0900
1708778819.7874 1.860 0.131 0.0900 1.873 0.0900
1708778819.7950 1.866 0.132 0.0869 1.878 0.0869
1708778819.8038 1.871 0.132 0.0854 1.884 0.0854
1708778819.8110 1.876 0.133 0.0869 1.889 0.0869
1708778819.8187 1.882 0.133 0.0900 1.894 0.0900
1708778819.8270 1.887 0.134 0.0885 1.900 0.0885
1708778819.8351 1.893 0.134 0.0869 1.906 0.0869
1708778819.8428 1.899 0.135 0.0885 1.911 0.0885
1708778819.8516 1.905 0.135 0.0916 1.917 0.0916
1708778819.8588 1.910 0.136 0.0947 1.922 0.0947
1708778819.8677 1.916 0.136 0.0947 1.928 0.0947
1708778819.8759 1.921 0.137 0.0916 1.934 0.0916
1708778819.8833 1.927 0.137 0.0900 1.940 0.0900
1708778819.8911 1.933 0.138 0.0916 1.946 0.0916
1708778819.8999 1.938 0.138 0.0947 1.951 0.0947
1708778819.9070 1.944 0.139 0.0962 1.957 0.0962
1708778819.9148 1.950 0.139 0.0916 1.962 0.0916
1708778819.9230 1.955 0.140 0.0931 1.968 0.0931
1708778819.9307 1.961 0.140 0.1009 1.973 0.1009
1708778819.9395 1.966 0.141 0.1040 1.979 0.1040
1708778819.9476 1.972 0.142 0.0993 1.984 0.0993
1708778819.9548 1.977 0.142 0.0978 1.990 0.0978
1708778819.9636 1.983 0.143 0.1024 1.996 0.1024
1708778819.9715 1.988 0.143 0.1087 2.001 0.1087
1708778819.9797 1.994 0.144 0.1071 2.007 0.1071
1708778819.9876 1.999 0.144 0.1040 2.012 0.1040
1708778819.9958 2.005 0.145 0.1040 2.018 0.1040
1708778820.0036 2.010 0.146 0.1056 2.023 0.1056
1708778820.0115 2.016 0.146 0.1087 2.029 0.1087
1708778820.0197 2.021 0.147 0.1102 2.034 0.1102
1708778820.0273 2.027 0.147 0.1087 2.040 0.1087
1708778820.0351 2.033 0.148 0.1087 2.046 0.1087
1708778820.0433 2.038 0.149 0.1118 2.051 0.1118
1708778820.0511 2.043 0.149 0.1164 2.056 0.1164
1708778820.0589 2.049 0.150 0.1180 2.062 0.1180
1708778820.0670 2.054 0.151 0.1164 2.068 0.1164
1708778820.0752 2.059 0.151 0.1180 2.073 0.1180
1708778820.0829 2.065 0.152 0.1211 2.078 0.1211
1708778820.0912 2.071 0.153 0.1226 2.084 0.1226
1708778820.0989 2.077 0.153 0.1211 2.090 0.1211
1708778820.1076 2.082 0.154 0.1242 2.096 0.1242
1708778820.1151 2.087 0.155 0.1273 2.101 0.1273
1708778820.1234 2.093 0.155 0.1288 2.107 0.1288
1708778820.1311 2.099 0.156 0.1273 2.112 0.1273
1708778820.1393 2.104 0.157 0.1273 2.118 0.1273
1708778820.1472 2.110 0.157 0.1288 2.123 0.1288
1708778820.1548 2.115 0.158 0.1304 2.129 0.1304
1708778820.1630 2.121 0.159 0.1319 2.135 0.1319
1708778820.1712 2.126 0.160 0.1335 2.140 0.1335
1708778820.1790 2.132 0.160 0.1335 2.146 0.1335
