% Pose without folding and reset (log_20240224_133853.509/log_pose_abs.txt)
% 1 	Time (sec)
% 2,3 	Position x,y (m)
% 4 	heading (rad)
% 5 	Driven distance (m) - signed
% 6 	Turned angle (rad) - signed
1708778333.9068 0.000 0.000 0.0000 0.000 0.0000
1708778333.9142 0.000 0.000 0.0000 0.000 0.0000
1708778333.9224 -0.000 -0.000 0.0016 -0.000 0.0016
1708778333.9300 -0.000 -0.000 0.0016 -0.000 0.0016
1708778333.9380 -0.000 -0.000 0.0016 -0.000 0.0016
1708778333.9460 -0.000 -0.000 0.0016 -0.000 0.0016
1708778333.9535 -0.000 -0.000 0.0016 -0.000 0.0016
1708778333.9621 -0.000 -0.000 0.0016 -0.000 0.0016
1708778333.9704 -0.000 -0.000 0.0016 -0.000 0.0016
1708778333.9779 -0.000 -0.000 0.0016 -0.000 0.0016
1708778333.9862 -0.000 -0.000 0.0016 -0.000 0.0016
1708778333.9934 -0.000 -0.000 0.0016 -0.000 0.0016
1708778334.0021 -0.000 -0.000 0.0016 -0.000 0.0016
1708778334.0103 -0.000 -0.000 0.0016 -0.000 0.0016
1708778334.0178 -0.000 -0.000 0.0016 -0.000 0.0016
1708778334.0264 0.000 0.000 0.0000 0.000 0.0000
1708778334.0344 0.001 0.000 0.0078 0.001 0.0078
1708778334.0425 0.003 0.000 0.0062 0.003 0.0062
1708778334.0502 0.005 0.000 0.0000 0.005 0.0000
1708778334.0590 0.006 0.000 0.0031 0.006 0.0031
1708778334.0658 0.008 0.000 0.0047 0.008 0.0047
1708778334.0743 0.011 0.000 0.0031 0.011 0.0031
1708778334.0819 0.014 0.000 0.0031 0.014 0.0031
1708778334.0935 0.017 0.000 0.0016 0.017 0.0016
1708778334.0986 0.020 0.000 0.0031 0.020 0.0031
1708778334.1057 0.023 0.000 0.0016 0.023 0.0016
1708778334.1139 0.026 0.000 0.0000 0.026 0.0000
1708778334.1226 0.030 0.000 0.0000 0.030 0.0000
1708778334.1321 0.033 0.000 0.0000 0.033 0.0000
1708778334.1393 0.036 0.000 0.0000 0.036 0.0000
1708778334.1463 0.040 0.000 -0.0016 0.040 -0.0016
1708778334.1538 0.044 0.000 -0.0016 0.044 -0.0016
1708778334.1621 0.047 0.000 -0.0016 0.047 -0.0016
1708778334.1701 0.052 0.000 0.0000 0.052 0.0000
1708778334.1776 0.057 0.000 -0.0016 0.057 -0.0016
1708778334.1864 0.061 0.000 -0.0016 0.061 -0.0016
1708778334.1950 0.065 0.000 -0.0016 0.065 -0.0016
1708778334.2023 0.070 0.000 -0.0016 0.070 -0.0016
1708778334.2098 0.075 0.000 -0.0016 0.075 -0.0016
1708778334.2177 0.079 0.000 0.0000 0.079 0.0000
1708778334.2260 0.083 0.000 0.0000 0.083 0.0000
1708778334.2344 0.087 0.000 -0.0016 0.087 -0.0016
1708778334.2421 0.092 0.000 0.0000 0.092 0.0000
1708778334.2498 0.096 0.000 0.0000 0.096 0.0000
1708778334.2581 0.100 0.000 0.0000 0.100 0.0000
1708778334.2675 0.104 0.000 0.0000 0.104 0.0000
1708778334.2743 0.108 0.000 0.0000 0.108 0.0000
1708778334.2819 0.113 0.000 0.0000 0.113 0.0000
1708778334.2896 0.117 0.000 0.0016 0.117 0.0016
1708778334.2977 0.120 0.000 0.0047 0.120 0.0047
1708778334.3059 0.124 0.000 0.0031 0.124 0.0031
1708778334.3141 0.129 0.000 0.0031 0.129 0.0031
1708778334.3223 0.133 0.000 0.0047 0.133 0.0047
1708778334.3302 0.137 0.000 0.0047 0.137 0.0047
1708778334.3380 0.141 0.000 0.0031 0.141 0.0031
1708778334.3461 0.145 0.000 0.0047 0.145 0.0047
1708778334.3543 0.148 0.000 0.0093 0.148 0.0093
1708778334.3626 0.152 0.000 0.0093 0.152 0.0093
1708778334.3705 0.156 0.000 0.0078 0.156 0.0078
1708778334.3775 0.160 0.000 0.0078 0.160 0.0078
1708778334.3863 0.164 0.000 0.0093 0.164 0.0093
1708778334.3945 0.167 0.000 0.0124 0.167 0.0124
1708778334.4016 0.172 0.000 0.0124 0.172 0.0124
1708778334.4103 0.176 0.000 0.0093 0.176 0.0093
1708778334.4177 0.180 0.000 0.0062 0.180 0.0062
1708778334.4265 0.183 0.000 0.0078 0.183 0.0078
1708778334.4341 0.187 0.001 0.0124 0.187 0.0124
1708778334.4422 0.191 0.001 0.0093 0.191 0.0093
1708778334.4504 0.195 0.001 0.0093 0.195 0.0093
1708778334.4581 0.199 0.001 0.0093 0.199 0.0093
1708778334.4656 0.203 0.001 0.0124 0.203 0.0124
1708778334.4743 0.207 0.001 0.0124 0.207 0.0124
1708778334.4822 0.211 0.001 0.0109 0.211 0.0109
1708778334.4896 0.215 0.001 0.0093 0.215 0.0093
1708778334.4987 0.219 0.001 0.0124 0.219 0.0124
1708778334.5064 0.223 0.001 0.0140 0.223 0.0140
1708778334.5137 0.227 0.001 0.0124 0.227 0.0124
1708778334.5222 0.231 0.001 0.0109 0.231 0.0109
1708778334.5307 0.235 0.001 0.0109 0.235 0.0109
1708778334.5379 0.239 0.001 0.0140 0.239 0.0140
1708778334.5461 0.243 0.001 0.0140 0.243 0.0140
1708778334.5538 0.247 0.001 0.0109 0.247 0.0109
1708778334.5629 0.251 0.001 0.0093 0.251 0.0093
1708778334.5698 0.255 0.001 0.0124 0.255 0.0124
1708778334.5776 0.259 0.001 0.0140 0.259 0.0140
1708778334.5859 0.263 0.001 0.0124 0.263 0.0124
1708778334.5943 0.267 0.001 0.0124 0.267 0.0124
1708778334.6022 0.271 0.001 0.0109 0.271 0.0109
1708778334.6105 0.276 0.002 0.0109 0.276 0.0109
1708778334.6185 0.279 0.002 0.0140 0.279 0.0140
1708778334.6263 0.283 0.002 0.0140 0.283 0.0140
1708778334.6335 0.287 0.002 0.0124 0.287 0.0124
1708778334.6417 0.291 0.002 0.0124 0.291 0.0124
1708778334.6498 0.295 0.002 0.0140 0.295 0.0140
1708778334.6581 0.299 0.002 0.0171 0.299 0.0171
1708778334.6661 0.303 0.002 0.0171 0.303 0.0171
1708778334.6740 0.307 0.002 0.0155 0.307 0.0155
1708778334.6823 0.311 0.002 0.0171 0.311 0.0171
1708778334.6905 0.315 0.002 0.0171 0.315 0.0171
1708778334.6984 0.319 0.002 0.0202 0.319 0.0202
1708778334.7056 0.324 0.002 0.0248 0.324 0.0248
1708778334.7136 0.327 0.002 0.0248 0.327 0.0248
1708778334.7226 0.331 0.002 0.0264 0.331 0.0264
1708778334.7309 0.335 0.003 0.0279 0.335 0.0279
1708778334.7382 0.339 0.003 0.0295 0.339 0.0295
1708778334.7460 0.344 0.003 0.0310 0.344 0.0310
1708778334.7542 0.347 0.003 0.0341 0.347 0.0341
1708778334.7622 0.350 0.003 0.0404 0.350 0.0404
1708778334.7701 0.355 0.003 0.0466 0.355 0.0466
1708778334.7782 0.359 0.004 0.0512 0.359 0.0512
1708778334.7881 0.363 0.004 0.0543 0.363 0.0543
1708778334.7938 0.366 0.004 0.0605 0.366 0.0605
1708778334.8021 0.370 0.004 0.0667 0.370 0.0667
1708778334.8105 0.374 0.004 0.0714 0.374 0.0714
1708778334.8181 0.378 0.005 0.0776 0.378 0.0776
1708778334.8262 0.382 0.005 0.0823 0.382 0.0823
1708778334.8345 0.386 0.005 0.0869 0.386 0.0869
1708778334.8469 0.390 0.006 0.0947 0.390 0.0947
1708778334.8502 0.394 0.006 0.1040 0.394 0.1040
1708778334.8581 0.398 0.007 0.1102 0.398 0.1102
1708778334.8669 0.400 0.007 0.1149 0.400 0.1149
1708778334.8746 0.403 0.007 0.1211 0.403 0.1211
1708778334.8821 0.407 0.008 0.1304 0.407 0.1304
1708778334.8897 0.412 0.008 0.1366 0.412 0.1366
1708778334.8981 0.415 0.009 0.1428 0.416 0.1428
1708778334.9064 0.418 0.009 0.1490 0.419 0.1490
1708778334.9137 0.422 0.010 0.1521 0.422 0.1521
1708778334.9220 0.426 0.010 0.1568 0.427 0.1568
1708778334.9304 0.430 0.011 0.1614 0.430 0.1614
1708778334.9386 0.433 0.012 0.1661 0.434 0.1661
1708778334.9458 0.437 0.012 0.1692 0.437 0.1692
1708778334.9541 0.441 0.013 0.1739 0.441 0.1739
1708778334.9630 0.444 0.013 0.1770 0.445 0.1770
1708778334.9702 0.448 0.014 0.1801 0.448 0.1801
1708778334.9786 0.452 0.015 0.1832 0.453 0.1832
1708778334.9858 0.456 0.016 0.1863 0.456 0.1863
1708778334.9942 0.459 0.016 0.1894 0.460 0.1894
1708778335.0021 0.463 0.017 0.1894 0.464 0.1894
1708778335.0100 0.467 0.018 0.1925 0.468 0.1925
1708778335.0179 0.471 0.019 0.1940 0.472 0.1940
1708778335.0265 0.475 0.019 0.1956 0.476 0.1956
1708778335.0344 0.479 0.020 0.1971 0.480 0.1971
1708778335.0423 0.483 0.021 0.1971 0.484 0.1971
1708778335.0496 0.487 0.022 0.1987 0.488 0.1987
1708778335.0576 0.491 0.022 0.2018 0.492 0.2018
1708778335.0656 0.494 0.023 0.2018 0.496 0.2018
1708778335.0738 0.498 0.024 0.2018 0.499 0.2018
1708778335.0818 0.502 0.025 0.2002 0.504 0.2002
1708778335.0913 0.507 0.026 0.2018 0.509 0.2018
1708778335.0975 0.511 0.027 0.2080 0.513 0.2080
1708778335.1059 0.515 0.027 0.2064 0.517 0.2064
1708778335.1138 0.518 0.028 0.2018 0.520 0.2018
1708778335.1221 0.522 0.029 0.1987 0.524 0.1987
1708778335.1303 0.526 0.030 0.2018 0.528 0.2018
1708778335.1385 0.530 0.031 0.2049 0.533 0.2049
1708778335.1457 0.534 0.031 0.2049 0.536 0.2049
1708778335.1537 0.538 0.032 0.2033 0.540 0.2033
1708778335.1627 0.541 0.033 0.2018 0.544 0.2018
1708778335.1701 0.545 0.034 0.2018 0.548 0.2018
1708778335.1778 0.550 0.035 0.2033 0.552 0.2033
1708778335.1859 0.554 0.035 0.2049 0.556 0.2049
1708778335.1943 0.557 0.036 0.2049 0.560 0.2049
1708778335.2021 0.561 0.037 0.2049 0.564 0.2049
1708778335.2098 0.565 0.038 0.2033 0.568 0.2033
1708778335.2178 0.569 0.039 0.2033 0.572 0.2033
1708778335.2255 0.573 0.039 0.2064 0.576 0.2064
1708778335.2342 0.577 0.040 0.2064 0.580 0.2064
1708778335.2425 0.580 0.041 0.2018 0.584 0.2018
1708778335.2505 0.585 0.042 0.2018 0.588 0.2018
1708778335.2580 0.589 0.043 0.2049 0.592 0.2049
1708778335.2660 0.592 0.043 0.2064 0.596 0.2064
1708778335.2742 0.596 0.044 0.2018 0.600 0.2018
1708778335.2824 0.600 0.045 0.1971 0.604 0.1971
1708778335.2897 0.604 0.046 0.1987 0.608 0.1987
1708778335.2976 0.608 0.047 0.2033 0.612 0.2033
1708778335.3059 0.612 0.047 0.2033 0.616 0.2033
1708778335.3139 0.616 0.048 0.1971 0.620 0.1971
1708778335.3217 0.620 0.049 0.1925 0.624 0.1925
1708778335.3301 0.624 0.050 0.1925 0.628 0.1925
1708778335.3385 0.628 0.051 0.1909 0.632 0.1909
1708778335.3464 0.632 0.051 0.1894 0.636 0.1894
1708778335.3536 0.636 0.052 0.1863 0.640 0.1863
1708778335.3626 0.639 0.053 0.1832 0.643 0.1832
1708778335.3698 0.643 0.053 0.1801 0.648 0.1801
1708778335.3781 0.648 0.054 0.1785 0.652 0.1785
1708778335.3864 0.652 0.055 0.1770 0.656 0.1770
1708778335.3942 0.655 0.056 0.1739 0.660 0.1739
1708778335.4019 0.659 0.056 0.1676 0.664 0.1676
1708778335.4102 0.663 0.057 0.1645 0.668 0.1645
1708778335.4178 0.667 0.058 0.1630 0.672 0.1630
1708778335.4263 0.671 0.058 0.1599 0.676 0.1599
1708778335.4342 0.675 0.059 0.1537 0.680 0.1537
1708778335.4421 0.679 0.059 0.1490 0.684 0.1490
1708778335.4514 0.682 0.060 0.1459 0.688 0.1459
1708778335.4577 0.686 0.061 0.1444 0.692 0.1444
1708778335.4664 0.691 0.061 0.1397 0.696 0.1397
1708778335.4736 0.694 0.062 0.1350 0.699 0.1350
1708778335.4825 0.697 0.062 0.1304 0.703 0.1304
1708778335.4904 0.702 0.063 0.1288 0.707 0.1288
1708778335.4985 0.706 0.063 0.1242 0.712 0.1242
1708778335.5059 0.710 0.064 0.1211 0.716 0.1211
1708778335.5146 0.714 0.064 0.1180 0.719 0.1180
1708778335.5217 0.717 0.065 0.1149 0.723 0.1149
1708778335.5301 0.722 0.065 0.1102 0.727 0.1102
1708778335.5381 0.726 0.066 0.1087 0.731 0.1087
1708778335.5464 0.730 0.066 0.1040 0.735 0.1040
1708778335.5537 0.734 0.066 0.0993 0.739 0.0993
1708778335.5623 0.738 0.067 0.0947 0.744 0.0947
1708778335.5703 0.742 0.067 0.0931 0.747 0.0931
1708778335.5786 0.746 0.067 0.0916 0.751 0.0916
1708778335.5865 0.750 0.068 0.0885 0.756 0.0885
1708778335.5938 0.754 0.068 0.0823 0.760 0.0823
1708778335.6021 0.758 0.069 0.0776 0.763 0.0776
1708778335.6100 0.761 0.069 0.0792 0.767 0.0792
1708778335.6185 0.765 0.069 0.0807 0.771 0.0807
1708778335.6261 0.770 0.069 0.0776 0.776 0.0776
1708778335.6345 0.774 0.070 0.0714 0.780 0.0714
1708778335.6419 0.778 0.070 0.0683 0.784 0.0683
1708778335.6498 0.782 0.070 0.0699 0.787 0.0699
1708778335.6577 0.785 0.071 0.0714 0.791 0.0714
1708778335.6663 0.789 0.071 0.0683 0.795 0.0683
1708778335.6738 0.793 0.071 0.0636 0.799 0.0636
1708778335.6817 0.798 0.071 0.0605 0.804 0.0605
1708778335.6900 0.802 0.072 0.0605 0.807 0.0605
1708778335.6984 0.805 0.072 0.0621 0.811 0.0621
1708778335.7056 0.809 0.072 0.0605 0.815 0.0605
1708778335.7137 0.813 0.072 0.0574 0.819 0.0574
1708778335.7222 0.817 0.073 0.0543 0.823 0.0543
1708778335.7301 0.821 0.073 0.0559 0.826 0.0559
1708778335.7385 0.825 0.073 0.0559 0.831 0.0559
1708778335.7458 0.829 0.073 0.0543 0.835 0.0543
1708778335.7538 0.833 0.073 0.0528 0.839 0.0528
1708778335.7628 0.837 0.074 0.0528 0.843 0.0528
1708778335.7700 0.841 0.074 0.0528 0.846 0.0528
1708778335.7779 0.845 0.074 0.0512 0.851 0.0512
1708778335.7863 0.849 0.074 0.0481 0.855 0.0481
1708778335.7946 0.852 0.074 0.0481 0.858 0.0481
1708778335.8018 0.856 0.075 0.0512 0.862 0.0512
1708778335.8112 0.861 0.075 0.0528 0.866 0.0528
1708778335.8186 0.865 0.075 0.0512 0.871 0.0512
1708778335.8258 0.869 0.075 0.0450 0.875 0.0450
1708778335.8341 0.872 0.075 0.0450 0.878 0.0450
1708778335.8425 0.876 0.076 0.0497 0.882 0.0497
1708778335.8504 0.880 0.076 0.0512 0.886 0.0512
1708778335.8577 0.884 0.076 0.0481 0.890 0.0481
1708778335.8658 0.889 0.076 0.0466 0.895 0.0466
1708778335.8738 0.892 0.076 0.0481 0.898 0.0481
1708778335.8822 0.895 0.077 0.0512 0.901 0.0512
1708778335.8905 0.900 0.077 0.0528 0.906 0.0528
1708778335.8984 0.905 0.077 0.0528 0.911 0.0528
1708778335.9066 0.909 0.077 0.0512 0.915 0.0512
1708778335.9139 0.912 0.077 0.0512 0.918 0.0512
1708778335.9218 0.916 0.078 0.0543 0.922 0.0543
1708778335.9305 0.920 0.078 0.0574 0.926 0.0574
1708778335.9378 0.924 0.078 0.0574 0.930 0.0574
1708778335.9467 0.929 0.078 0.0574 0.935 0.0574
1708778335.9540 0.932 0.079 0.0605 0.938 0.0605
1708778335.9632 0.936 0.079 0.0636 0.942 0.0636
1708778335.9705 0.941 0.079 0.0652 0.947 0.0652
1708778335.9781 0.945 0.079 0.0652 0.951 0.0652
1708778335.9857 0.949 0.080 0.0667 0.955 0.0667
1708778335.9938 0.952 0.080 0.0730 0.958 0.0730
1708778336.0027 0.956 0.080 0.0745 0.962 0.0745
1708778336.0103 0.961 0.080 0.0745 0.967 0.0745
1708778336.0181 0.965 0.081 0.0792 0.971 0.0792
1708778336.0265 0.969 0.081 0.0807 0.975 0.0807
1708778336.0342 0.972 0.081 0.0838 0.978 0.0838
1708778336.0424 0.976 0.082 0.0823 0.982 0.0823
1708778336.0500 0.980 0.082 0.0854 0.986 0.0854
1708778336.0577 0.984 0.082 0.0885 0.990 0.0885
1708778336.0658 0.988 0.083 0.0916 0.994 0.0916
1708778336.0740 0.991 0.083 0.0947 0.997 0.0947
1708778336.0824 0.995 0.083 0.0962 1.001 0.0962
1708778336.0904 1.000 0.084 0.0978 1.006 0.0978
1708778336.0977 1.004 0.084 0.1009 1.010 0.1009
1708778336.1066 1.007 0.085 0.1040 1.014 0.1040
1708778336.1142 1.011 0.085 0.1071 1.017 0.1071
1708778336.1220 1.015 0.085 0.1087 1.021 0.1087
1708778336.1303 1.019 0.086 0.1102 1.026 0.1102
1708778336.1383 1.024 0.086 0.1133 1.030 0.1133
1708778336.1466 1.027 0.087 0.1149 1.034 0.1149
1708778336.1539 1.031 0.087 0.1164 1.037 0.1164
1708778336.1626 1.035 0.088 0.1180 1.041 0.1180
1708778336.1707 1.039 0.088 0.1211 1.046 0.1211
1708778336.1782 1.043 0.089 0.1226 1.050 0.1226
1708778336.1862 1.047 0.089 0.1226 1.054 0.1226
1708778336.1946 1.051 0.090 0.1242 1.057 0.1242
1708778336.2024 1.054 0.090 0.1273 1.061 0.1273
1708778336.2104 1.059 0.091 0.1288 1.066 0.1288
1708778336.2182 1.063 0.091 0.1304 1.070 0.1304
1708778336.2257 1.067 0.092 0.1319 1.074 0.1319
1708778336.2340 1.070 0.092 0.1319 1.077 0.1319
1708778336.2423 1.074 0.093 0.1319 1.081 0.1319
1708778336.2496 1.079 0.093 0.1319 1.086 0.1319
1708778336.2588 1.083 0.094 0.1319 1.090 0.1319
1708778336.2657 1.087 0.094 0.1335 1.093 0.1335
1708778336.2742 1.091 0.095 0.1366 1.098 0.1366
1708778336.2820 1.095 0.095 0.1350 1.102 0.1350
1708778336.2903 1.099 0.096 0.1335 1.106 0.1335
1708778336.2986 1.103 0.097 0.1335 1.110 0.1335
1708778336.3063 1.107 0.097 0.1350 1.114 0.1350
1708778336.3143 1.111 0.098 0.1366 1.118 0.1366
1708778336.3216 1.114 0.098 0.1350 1.122 0.1350
1708778336.3299 1.118 0.099 0.1366 1.126 0.1366
1708778336.3382 1.122 0.099 0.1366 1.129 0.1366
1708778336.3466 1.126 0.100 0.1350 1.134 0.1350
1708778336.3544 1.131 0.100 0.1350 1.138 0.1350
1708778336.3623 1.134 0.101 0.1366 1.142 0.1366
1708778336.3706 1.138 0.101 0.1350 1.145 0.1350
1708778336.3778 1.142 0.102 0.1335 1.149 0.1335
1708778336.3861 1.146 0.102 0.1319 1.153 0.1319
1708778336.3944 1.150 0.103 0.1319 1.157 0.1319
1708778336.4022 1.154 0.104 0.1335 1.161 0.1335
1708778336.4105 1.158 0.104 0.1335 1.166 0.1335
1708778336.4184 1.162 0.105 0.1319 1.170 0.1319
1708778336.4263 1.166 0.105 0.1288 1.174 0.1288
1708778336.4346 1.170 0.106 0.1273 1.178 0.1273
1708778336.4417 1.174 0.106 0.1273 1.181 0.1273
1708778336.4506 1.178 0.107 0.1273 1.186 0.1273
1708778336.4580 1.182 0.107 0.1242 1.189 0.1242
1708778336.4665 1.186 0.108 0.1226 1.193 0.1226
1708778336.4737 1.189 0.108 0.1242 1.197 0.1242
1708778336.4822 1.194 0.109 0.1242 1.202 0.1242
1708778336.4904 1.198 0.109 0.1226 1.206 0.1226
1708778336.4982 1.201 0.110 0.1180 1.209 0.1180
1708778336.5065 1.206 0.110 0.1149 1.213 0.1149
1708778336.5145 1.210 0.111 0.1164 1.218 0.1164
1708778336.5225 1.214 0.111 0.1164 1.222 0.1164
1708778336.5312 1.218 0.111 0.1133 1.226 0.1133
1708778336.5384 1.221 0.112 0.1102 1.229 0.1102
1708778336.5456 1.226 0.112 0.1102 1.234 0.1102
1708778336.5539 1.229 0.113 0.1118 1.237 0.1118
1708778336.5630 1.232 0.113 0.1102 1.240 0.1102
1708778336.5705 1.236 0.114 0.1056 1.244 0.1056
1708778336.5786 1.241 0.114 0.1024 1.249 0.1024
1708778336.5859 1.245 0.114 0.1056 1.253 0.1056
1708778336.5942 1.249 0.115 0.1071 1.257 0.1071
1708778336.6024 1.253 0.115 0.1040 1.261 0.1040
1708778336.6096 1.257 0.116 0.1024 1.266 0.1024
1708778336.6185 1.262 0.116 0.1040 1.270 0.1040
1708778336.6256 1.265 0.117 0.1024 1.273 0.1024
1708778336.6341 1.269 0.117 0.0993 1.277 0.0993
1708778336.6419 1.273 0.117 0.0962 1.281 0.0962
1708778336.6506 1.277 0.118 0.0978 1.285 0.0978
1708778336.6580 1.281 0.118 0.0962 1.289 0.0962
1708778336.6657 1.285 0.118 0.0962 1.293 0.0962
1708778336.6740 1.288 0.119 0.0947 1.297 0.0947
1708778336.6823 1.292 0.119 0.0931 1.301 0.0931
1708778336.6901 1.297 0.120 0.0947 1.305 0.0947
1708778336.6985 1.301 0.120 0.0947 1.309 0.0947
1708778336.7057 1.304 0.120 0.0916 1.312 0.0916
1708778336.7143 1.308 0.121 0.0916 1.316 0.0916
1708778336.7225 1.312 0.121 0.0931 1.321 0.0931
1708778336.7302 1.317 0.121 0.0931 1.325 0.0931
1708778336.7381 1.321 0.122 0.0916 1.329 0.0916
1708778336.7464 1.324 0.122 0.0931 1.333 0.0931
1708778336.7538 1.328 0.122 0.0931 1.336 0.0931
1708778336.7633 1.332 0.123 0.0931 1.341 0.0931
1708778336.7705 1.336 0.123 0.0931 1.345 0.0931
1708778336.7779 1.340 0.124 0.0931 1.349 0.0931
1708778336.7861 1.344 0.124 0.0916 1.352 0.0916
1708778336.7945 1.347 0.124 0.0931 1.356 0.0931
1708778336.8016 1.352 0.125 0.0916 1.360 0.0916
1708778336.8106 1.356 0.125 0.0916 1.365 0.0916
1708778336.8185 1.360 0.125 0.0931 1.368 0.0931
1708778336.8264 1.363 0.126 0.0947 1.372 0.0947
1708778336.8343 1.368 0.126 0.0947 1.376 0.0947
1708778336.8426 1.372 0.127 0.0916 1.381 0.0916
1708778336.8501 1.376 0.127 0.0900 1.385 0.0900
1708778336.8588 1.380 0.127 0.0916 1.389 0.0916
1708778336.8658 1.383 0.128 0.0962 1.392 0.0962
1708778336.8742 1.387 0.128 0.0947 1.396 0.0947
1708778336.8821 1.392 0.128 0.0900 1.401 0.0900
1708778336.8914 1.396 0.129 0.0885 1.404 0.0885
1708778336.8986 1.400 0.129 0.0931 1.408 0.0931
1708778336.9064 1.403 0.129 0.0962 1.412 0.0962
1708778336.9144 1.407 0.130 0.0916 1.416 0.0916
1708778336.9217 1.411 0.130 0.0869 1.420 0.0869
1708778336.9296 1.415 0.131 0.0885 1.424 0.0885
1708778336.9377 1.419 0.131 0.0931 1.428 0.0931
1708778336.9461 1.423 0.131 0.0947 1.432 0.0947
1708778336.9539 1.427 0.132 0.0916 1.436 0.0916
1708778336.9630 1.431 0.132 0.0869 1.440 0.0869
1708778336.9703 1.435 0.132 0.0900 1.444 0.0900
1708778336.9782 1.439 0.133 0.0947 1.448 0.0947
1708778336.9864 1.443 0.133 0.0931 1.452 0.0931
1708778336.9944 1.447 0.133 0.0885 1.456 0.0885
1708778337.0017 1.451 0.134 0.0869 1.460 0.0869
1708778337.0100 1.455 0.134 0.0916 1.464 0.0916
1708778337.0180 1.459 0.135 0.0947 1.468 0.0947
1708778337.0257 1.463 0.135 0.0916 1.472 0.0916
1708778337.0341 1.466 0.135 0.0900 1.476 0.0900
1708778337.0423 1.471 0.136 0.0931 1.480 0.0931
1708778337.0502 1.475 0.136 0.0947 1.484 0.0947
1708778337.0579 1.479 0.136 0.0947 1.488 0.0947
1708778337.0661 1.483 0.137 0.0947 1.492 0.0947
1708778337.0737 1.486 0.137 0.0931 1.495 0.0931
1708778337.0819 1.490 0.137 0.0931 1.499 0.0931
1708778337.0904 1.495 0.138 0.0931 1.504 0.0931
1708778337.0983 1.499 0.138 0.0931 1.508 0.0931
1708778337.1066 1.503 0.139 0.0947 1.512 0.0947
1708778337.1147 1.506 0.139 0.0931 1.516 0.0931
1708778337.1218 1.511 0.139 0.0947 1.520 0.0947
1708778337.1302 1.515 0.140 0.0931 1.524 0.0931
1708778337.1386 1.519 0.140 0.0931 1.528 0.0931
1708778337.1465 1.522 0.140 0.0947 1.532 0.0947
1708778337.1537 1.526 0.141 0.0947 1.536 0.0947
1708778337.1627 1.531 0.141 0.0931 1.540 0.0931
1708778337.1706 1.534 0.142 0.0931 1.544 0.0931
1708778337.1778 1.538 0.142 0.0947 1.548 0.0947
1708778337.1862 1.543 0.142 0.0931 1.552 0.0931
