% Pose without folding and reset (log_20240224_141234.319/log_pose_abs.txt)
% 1 	Time (sec)
% 2,3 	Position x,y (m)
% 4 	heading (rad)
% 5 	Driven distance (m) - signed
% 6 	Turned angle (rad) - signed
1708780354.6774 0.000 0.000 0.0000 0.000 0.0000
1708780354.6850 0.000 0.000 0.0000 0.000 0.0000
1708780354.6922 -0.000 -0.000 0.0016 -0.000 0.0016
1708780354.7008 -0.000 -0.000 0.0016 -0.000 0.0016
1708780354.7089 0.000 0.000 0.0031 0.000 0.0031
1708780354.7169 0.002 0.000 0.0155 0.002 0.0155
1708780354.7245 0.005 0.000 0.0140 0.005 0.0140
1708780354.7333 0.008 0.000 0.0124 0.008 0.0124
1708780354.7401 0.010 0.000 0.0140 0.010 0.0140
1708780354.7488 0.013 0.000 0.0140 0.013 0.0140
1708780354.7569 0.018 0.000 0.0109 0.018 0.0109
1708780354.7641 0.022 0.000 0.0109 0.022 0.0109
1708780354.7729 0.026 0.000 0.0093 0.026 0.0093
1708780354.7810 0.031 0.000 0.0078 0.031 0.0078
1708780354.7885 0.036 0.000 0.0078 0.036 0.0078
1708780354.7962 0.043 0.000 0.0062 0.043 0.0062
1708780354.8044 0.049 0.000 -0.0000 0.049 -0.0000
1708780354.8126 0.055 0.000 -0.0047 0.055 -0.0047
1708780354.8203 0.061 0.000 -0.0078 0.061 -0.0078
1708780354.8283 0.068 0.000 -0.0140 0.068 -0.0140
1708780354.8371 0.074 0.000 -0.0171 0.074 -0.0171
1708780354.8449 0.081 0.000 -0.0186 0.081 -0.0186
1708780354.8522 0.087 -0.000 -0.0233 0.087 -0.0233
1708780354.8606 0.094 -0.000 -0.0264 0.094 -0.0264
1708780354.8684 0.100 -0.000 -0.0279 0.100 -0.0279
1708780354.8765 0.107 -0.001 -0.0310 0.107 -0.0310
1708780354.8842 0.113 -0.001 -0.0326 0.113 -0.0326
1708780354.8960 0.120 -0.001 -0.0341 0.120 -0.0341
1708780354.9004 0.127 -0.001 -0.0326 0.127 -0.0326
1708780354.9089 0.133 -0.001 -0.0326 0.133 -0.0326
1708780354.9168 0.137 -0.002 -0.0326 0.137 -0.0326
1708780354.9246 0.142 -0.002 -0.0326 0.142 -0.0326
1708780354.9330 0.150 -0.002 -0.0373 0.150 -0.0373
1708780354.9412 0.158 -0.002 -0.0373 0.158 -0.0373
1708780354.9486 0.164 -0.003 -0.0373 0.164 -0.0373
1708780354.9562 0.170 -0.003 -0.0373 0.170 -0.0373
1708780354.9648 0.176 -0.003 -0.0357 0.176 -0.0357
1708780354.9731 0.183 -0.003 -0.0341 0.183 -0.0341
1708780354.9825 0.191 -0.003 -0.0326 0.191 -0.0326
1708780354.9889 0.199 -0.004 -0.0310 0.199 -0.0310
1708780354.9963 0.206 -0.004 -0.0295 0.206 -0.0295
1708780355.0054 0.211 -0.004 -0.0264 0.211 -0.0264
1708780355.0122 0.217 -0.004 -0.0217 0.217 -0.0217
1708780355.0207 0.223 -0.004 -0.0217 0.223 -0.0217
1708780355.0282 0.230 -0.004 -0.0202 0.230 -0.0202
1708780355.0369 0.237 -0.005 -0.0186 0.237 -0.0186
1708780355.0443 0.244 -0.005 -0.0155 0.244 -0.0155
1708780355.0524 0.250 -0.005 -0.0171 0.250 -0.0171
1708780355.0604 0.256 -0.005 -0.0186 0.256 -0.0186
1708780355.0689 0.262 -0.005 -0.0155 0.263 -0.0155
1708780355.0763 0.269 -0.005 -0.0140 0.270 -0.0140
1708780355.0850 0.276 -0.005 -0.0124 0.276 -0.0124
1708780355.0924 0.282 -0.005 -0.0109 0.282 -0.0109
1708780355.1005 0.289 -0.005 -0.0078 0.289 -0.0078
1708780355.1088 0.296 -0.005 -0.0062 0.296 -0.0062
1708780355.1161 0.302 -0.005 -0.0062 0.303 -0.0062
1708780355.1245 0.309 -0.005 -0.0047 0.309 -0.0047
1708780355.1330 0.314 -0.006 -0.0031 0.315 -0.0031
1708780355.1410 0.321 -0.006 -0.0000 0.321 -0.0000
1708780355.1490 0.328 -0.006 0.0016 0.328 0.0016
1708780355.1567 0.335 -0.005 0.0047 0.335 0.0047
1708780355.1649 0.341 -0.005 0.0062 0.341 0.0062
1708780355.1726 0.347 -0.005 0.0093 0.347 0.0093
1708780355.1804 0.354 -0.005 0.0109 0.354 0.0109
1708780355.1890 0.360 -0.005 0.0124 0.360 0.0124
1708780355.1962 0.366 -0.005 0.0140 0.366 0.0140
1708780355.2050 0.373 -0.005 0.0155 0.373 0.0155
1708780355.2121 0.379 -0.005 0.0186 0.379 0.0186
1708780355.2204 0.385 -0.005 0.0217 0.385 0.0217
1708780355.2282 0.391 -0.005 0.0264 0.391 0.0264
1708780355.2370 0.398 -0.005 0.0295 0.398 0.0295
1708780355.2442 0.404 -0.004 0.0310 0.404 0.0310
1708780355.2530 0.411 -0.004 0.0326 0.411 0.0326
1708780355.2601 0.417 -0.004 0.0373 0.417 0.0373
1708780355.2683 0.423 -0.004 0.0435 0.423 0.0435
1708780355.2769 0.429 -0.003 0.0450 0.429 0.0450
1708780355.2847 0.436 -0.003 0.0481 0.436 0.0481
1708780355.2930 0.442 -0.003 0.0528 0.442 0.0528
1708780355.3007 0.449 -0.002 0.0590 0.449 0.0590
1708780355.3089 0.455 -0.002 0.0636 0.455 0.0636
1708780355.3170 0.461 -0.002 0.0667 0.462 0.0667
1708780355.3245 0.467 -0.001 0.0730 0.468 0.0730
1708780355.3335 0.474 -0.001 0.0792 0.474 0.0792
1708780355.3406 0.480 -0.000 0.0823 0.480 0.0823
1708780355.3484 0.487 0.000 0.0854 0.487 0.0854
1708780355.3567 0.493 0.001 0.0900 0.493 0.0900
1708780355.3646 0.498 0.001 0.0978 0.498 0.0978
1708780355.3722 0.505 0.002 0.1040 0.505 0.1040
1708780355.3811 0.511 0.003 0.1071 0.512 0.1071
1708780355.3889 0.517 0.003 0.1071 0.518 0.1071
1708780355.3967 0.523 0.004 0.1133 0.524 0.1133
1708780355.4049 0.530 0.005 0.1226 0.530 0.1226
1708780355.4129 0.536 0.006 0.1304 0.537 0.1304
1708780355.4206 0.543 0.007 0.1350 0.543 0.1350
1708780355.4288 0.549 0.007 0.1397 0.550 0.1397
1708780355.4365 0.555 0.008 0.1490 0.556 0.1490
1708780355.4442 0.562 0.009 0.1568 0.563 0.1568
1708780355.4524 0.568 0.010 0.1599 0.569 0.1599
1708780355.4604 0.574 0.011 0.1630 0.575 0.1630
1708780355.4682 0.581 0.012 0.1707 0.582 0.1707
1708780355.4764 0.587 0.014 0.1801 0.588 0.1801
1708780355.4841 0.594 0.015 0.1832 0.595 0.1832
1708780355.4930 0.600 0.016 0.1863 0.601 0.1863
1708780355.5002 0.606 0.017 0.1940 0.607 0.1940
1708780355.5083 0.613 0.018 0.2033 0.614 0.2033
1708780355.5171 0.619 0.020 0.2049 0.620 0.2049
1708780355.5242 0.625 0.021 0.2049 0.627 0.2049
1708780355.5330 0.631 0.022 0.2096 0.634 0.2096
1708780355.5408 0.638 0.024 0.2158 0.640 0.2158
1708780355.5488 0.644 0.025 0.2235 0.647 0.2235
1708780355.5608 0.650 0.027 0.2297 0.653 0.2297
1708780355.5649 0.656 0.028 0.2328 0.659 0.2328
1708780355.5721 0.663 0.029 0.2328 0.665 0.2328
1708780355.5803 0.667 0.031 0.2390 0.670 0.2390
1708780355.5888 0.672 0.032 0.2453 0.676 0.2453
1708780355.5968 0.679 0.034 0.2499 0.683 0.2499
1708780355.6050 0.686 0.035 0.2515 0.690 0.2515
1708780355.6127 0.692 0.037 0.2530 0.696 0.2530
1708780355.6209 0.697 0.038 0.2577 0.701 0.2577
1708780355.6281 0.703 0.040 0.2639 0.707 0.2639
1708780355.6375 0.710 0.042 0.2654 0.714 0.2654
1708780355.6446 0.716 0.043 0.2670 0.720 0.2670
1708780355.6529 0.721 0.045 0.2701 0.726 0.2701
1708780355.6606 0.727 0.046 0.2732 0.732 0.2732
1708780355.6688 0.733 0.048 0.2763 0.738 0.2763
1708780355.6809 0.739 0.050 0.2794 0.745 0.2794
1708780355.6854 0.745 0.052 0.2794 0.751 0.2794
1708780355.6929 0.752 0.053 0.2810 0.758 0.2810
1708780355.7005 0.757 0.055 0.2810 0.763 0.2810
1708780355.7085 0.762 0.056 0.2810 0.768 0.2810
1708780355.7162 0.767 0.058 0.2825 0.774 0.2825
1708780355.7249 0.774 0.060 0.2841 0.781 0.2841
1708780355.7332 0.781 0.062 0.2841 0.788 0.2841
1708780355.7404 0.787 0.064 0.2810 0.794 0.2810
1708780355.7487 0.792 0.065 0.2825 0.800 0.2825
1708780355.7565 0.798 0.067 0.2841 0.806 0.2841
1708780355.7650 0.804 0.069 0.2856 0.812 0.2856
1708780355.7731 0.810 0.070 0.2841 0.819 0.2841
1708780355.7809 0.816 0.072 0.2810 0.825 0.2810
1708780355.7888 0.822 0.074 0.2810 0.831 0.2810
1708780355.7971 0.828 0.076 0.2810 0.837 0.2810
1708780355.8048 0.834 0.077 0.2794 0.843 0.2794
1708780355.8131 0.841 0.079 0.2763 0.850 0.2763
1708780355.8201 0.847 0.081 0.2701 0.857 0.2701
1708780355.8290 0.853 0.083 0.2654 0.863 0.2654
1708780355.8368 0.858 0.084 0.2654 0.868 0.2654
1708780355.8451 0.865 0.086 0.2654 0.875 0.2654
1708780355.8529 0.871 0.088 0.2623 0.882 0.2623
1708780355.8601 0.877 0.089 0.2561 0.888 0.2561
1708780355.8682 0.883 0.091 0.2499 0.894 0.2499
1708780355.8771 0.888 0.092 0.2499 0.899 0.2499
1708780355.8846 0.895 0.094 0.2484 0.906 0.2484
1708780355.8927 0.902 0.095 0.2437 0.914 0.2437
1708780355.9005 0.908 0.097 0.2422 0.920 0.2422
1708780355.9086 0.914 0.098 0.2390 0.926 0.2390
1708780355.9169 0.919 0.100 0.2313 0.931 0.2313
1708780355.9248 0.925 0.101 0.2251 0.938 0.2251
1708780355.9338 0.932 0.103 0.2251 0.945 0.2251
1708780355.9411 0.938 0.104 0.2235 0.951 0.2235
1708780355.9490 0.945 0.105 0.2173 0.958 0.2173
1708780355.9571 0.951 0.107 0.2096 0.964 0.2096
1708780355.9643 0.957 0.108 0.2033 0.970 0.2033
1708780355.9722 0.964 0.109 0.2018 0.977 0.2018
1708780355.9805 0.970 0.111 0.2002 0.984 0.2002
1708780355.9884 0.976 0.112 0.1940 0.990 0.1940
1708780355.9971 0.982 0.113 0.1847 0.996 0.1847
1708780356.0045 0.988 0.114 0.1801 1.002 0.1801
1708780356.0129 0.995 0.116 0.1770 1.009 0.1770
1708780356.0210 1.002 0.117 0.1754 1.016 0.1754
1708780356.0281 1.008 0.118 0.1692 1.022 0.1692
1708780356.0371 1.014 0.119 0.1599 1.028 0.1599
1708780356.0448 1.020 0.120 0.1537 1.034 0.1537
1708780356.0521 1.027 0.121 0.1490 1.041 0.1490
1708780356.0604 1.033 0.122 0.1459 1.047 0.1459
1708780356.0682 1.039 0.122 0.1397 1.053 0.1397
1708780356.0764 1.045 0.123 0.1382 1.060 0.1382
1708780356.0843 1.052 0.124 0.1304 1.067 0.1304
1708780356.0931 1.058 0.125 0.1226 1.073 0.1226
1708780356.1003 1.064 0.126 0.1180 1.079 0.1180
1708780356.1086 1.071 0.127 0.1133 1.085 0.1133
1708780356.1169 1.077 0.127 0.1087 1.092 0.1087
1708780356.1241 1.084 0.128 0.1009 1.099 0.1009
1708780356.1330 1.090 0.129 0.0962 1.105 0.0962
1708780356.1410 1.096 0.129 0.0962 1.110 0.0962
1708780356.1483 1.102 0.130 0.0916 1.117 0.0916
1708780356.1566 1.109 0.130 0.0869 1.124 0.0869
1708780356.1644 1.115 0.131 0.0823 1.130 0.0823
1708780356.1725 1.121 0.131 0.0792 1.136 0.0792
1708780356.1807 1.128 0.132 0.0761 1.143 0.0761
1708780356.1885 1.135 0.132 0.0730 1.150 0.0730
1708780356.1967 1.141 0.133 0.0667 1.156 0.0667
1708780356.2051 1.147 0.133 0.0636 1.162 0.0636
1708780356.2129 1.153 0.134 0.0636 1.168 0.0636
1708780356.2202 1.160 0.134 0.0590 1.175 0.0590
1708780356.2284 1.166 0.134 0.0528 1.181 0.0528
1708780356.2369 1.172 0.135 0.0512 1.187 0.0512
1708780356.2442 1.178 0.135 0.0528 1.193 0.0528
1708780356.2525 1.185 0.135 0.0512 1.200 0.0512
1708780356.2603 1.192 0.136 0.0481 1.207 0.0481
1708780356.2683 1.198 0.136 0.0466 1.213 0.0466
1708780356.2767 1.203 0.136 0.0466 1.218 0.0466
1708780356.2843 1.210 0.137 0.0450 1.225 0.0450
1708780356.2926 1.217 0.137 0.0435 1.232 0.0435
1708780356.3009 1.223 0.137 0.0450 1.238 0.0450
1708780356.3088 1.229 0.137 0.0435 1.244 0.0435
1708780356.3164 1.236 0.138 0.0435 1.251 0.0435
1708780356.3247 1.242 0.138 0.0419 1.257 0.0419
1708780356.3329 1.248 0.138 0.0435 1.264 0.0435
1708780356.3401 1.255 0.139 0.0481 1.270 0.0481
1708780356.3483 1.261 0.139 0.0481 1.277 0.0481
1708780356.3570 1.268 0.139 0.0466 1.283 0.0466
1708780356.3643 1.274 0.139 0.0497 1.289 0.0497
1708780356.3726 1.281 0.140 0.0512 1.296 0.0512
1708780356.3801 1.287 0.140 0.0512 1.302 0.0512
1708780356.3891 1.293 0.140 0.0543 1.308 0.0543
1708780356.3964 1.299 0.141 0.0574 1.314 0.0574
1708780356.4050 1.306 0.141 0.0590 1.321 0.0590
1708780356.4124 1.312 0.142 0.0574 1.327 0.0574
1708780356.4208 1.318 0.142 0.0621 1.333 0.0621
1708780356.4287 1.324 0.142 0.0699 1.340 0.0699
1708780356.4366 1.331 0.143 0.0745 1.346 0.0745
1708780356.4449 1.337 0.143 0.0745 1.353 0.0745
1708780356.4526 1.344 0.144 0.0761 1.359 0.0761
1708780356.4608 1.350 0.144 0.0838 1.365 0.0838
1708780356.4691 1.357 0.145 0.0900 1.372 0.0900
1708780356.4770 1.363 0.145 0.0931 1.378 0.0931
1708780356.4849 1.370 0.146 0.0931 1.385 0.0931
1708780356.4930 1.376 0.147 0.0993 1.391 0.0993
1708780356.5009 1.382 0.147 0.1040 1.397 0.1040
1708780356.5082 1.388 0.148 0.1102 1.403 0.1102
1708780356.5166 1.395 0.149 0.1133 1.410 0.1133
1708780356.5244 1.401 0.149 0.1164 1.417 0.1164
1708780356.5327 1.407 0.150 0.1226 1.423 0.1226
1708780356.5408 1.414 0.151 0.1304 1.429 0.1304
1708780356.5489 1.420 0.152 0.1350 1.436 0.1350
1708780356.5564 1.427 0.153 0.1382 1.443 0.1382
1708780356.5647 1.433 0.154 0.1413 1.449 0.1413
1708780356.5725 1.439 0.154 0.1444 1.455 0.1444
1708780356.5807 1.445 0.155 0.1490 1.461 0.1490
1708780356.5886 1.452 0.156 0.1537 1.468 0.1537
1708780356.5964 1.458 0.157 0.1583 1.474 0.1583
1708780356.6046 1.464 0.158 0.1614 1.481 0.1614
1708780356.6129 1.470 0.159 0.1676 1.487 0.1676
1708780356.6208 1.477 0.160 0.1723 1.493 0.1723
1708780356.6289 1.484 0.162 0.1770 1.500 0.1770
1708780356.6371 1.490 0.163 0.1832 1.507 0.1832
1708780356.6449 1.496 0.164 0.1894 1.513 0.1894
1708780356.6521 1.502 0.165 0.1925 1.519 0.1925
1708780356.6605 1.509 0.166 0.1940 1.526 0.1940
1708780356.6683 1.515 0.168 0.1987 1.532 0.1987
1708780356.6764 1.521 0.169 0.2080 1.538 0.2080
1708780356.6844 1.527 0.170 0.2111 1.545 0.2111
1708780356.6923 1.534 0.172 0.2127 1.551 0.2127
1708780356.7006 1.540 0.173 0.2158 1.558 0.2158
1708780356.7091 1.546 0.174 0.2220 1.564 0.2220
1708780356.7169 1.553 0.176 0.2266 1.571 0.2266
1708780356.7242 1.559 0.177 0.2282 1.578 0.2282
1708780356.7326 1.565 0.179 0.2282 1.584 0.2282
1708780356.7401 1.570 0.180 0.2313 1.589 0.2313
1708780356.7485 1.577 0.182 0.2344 1.595 0.2344
1708780356.7568 1.583 0.183 0.2375 1.602 0.2375
1708780356.7645 1.589 0.185 0.2422 1.608 0.2422
1708780356.7727 1.595 0.186 0.2437 1.615 0.2437
1708780356.7810 1.602 0.188 0.2437 1.621 0.2437
1708780356.7884 1.608 0.189 0.2406 1.628 0.2406
1708780356.7968 1.614 0.191 0.2437 1.634 0.2437
1708780356.8041 1.620 0.192 0.2515 1.640 0.2515
1708780356.8129 1.626 0.194 0.2546 1.646 0.2546
1708780356.8204 1.632 0.195 0.2499 1.653 0.2499
1708780356.8287 1.639 0.197 0.2499 1.659 0.2499
1708780356.8361 1.645 0.199 0.2546 1.665 0.2546
1708780356.8448 1.651 0.200 0.2592 1.672 0.2592
1708780356.8720 1.670 0.205 0.2499 1.692 0.2499
1708780356.8764 1.677 0.207 0.2515 1.699 0.2515
1708780356.8848 1.683 0.209 0.2530 1.705 0.2530
1708780356.8938 1.687 0.209 0.2561 1.709 0.2561
1708780356.9005 1.692 0.211 0.2561 1.714 0.2561
1708780356.9084 1.699 0.213 0.2546 1.722 0.2546
1708780356.9175 1.706 0.214 0.2546 1.728 0.2546
1708780356.9251 1.712 0.216 0.2530 1.735 0.2530
1708780356.9330 1.718 0.218 0.2530 1.741 0.2530
1708780356.9418 1.724 0.219 0.2546 1.747 0.2546
1708780356.9484 1.729 0.221 0.2546 1.753 0.2546
1708780356.9564 1.736 0.222 0.2546 1.759 0.2546
1708780356.9652 1.741 0.224 0.2515 1.765 0.2515
1708780356.9728 1.747 0.225 0.2515 1.771 0.2515
1708780356.9968 1.765 0.230 0.2530 1.789 0.2530
1708780357.0012 1.771 0.231 0.2530 1.796 0.2530
1708780357.0089 1.777 0.233 0.2499 1.802 0.2499
1708780357.0178 1.780 0.234 0.2484 1.806 0.2484
1708780357.0244 1.786 0.235 0.2484 1.811 0.2484
1708780357.0333 1.793 0.237 0.2484 1.818 0.2484
1708780357.0421 1.799 0.238 0.2468 1.825 0.2468
1708780357.0483 1.805 0.240 0.2422 1.831 0.2422
1708780357.0572 1.811 0.241 0.2390 1.837 0.2390
1708780357.0661 1.817 0.243 0.2359 1.843 0.2359
1708780357.0727 1.823 0.244 0.2328 1.850 0.2328
1708780357.0805 1.830 0.246 0.2328 1.857 0.2328
1708780357.0905 1.835 0.247 0.2282 1.862 0.2282
1708780357.0965 1.840 0.248 0.2235 1.867 0.2235
1708780357.1043 1.846 0.250 0.2189 1.873 0.2189
1708780357.1144 1.852 0.251 0.2173 1.879 0.2173
1708780357.1209 1.857 0.252 0.2158 1.885 0.2158
1708780357.1287 1.864 0.253 0.2111 1.891 0.2111
1708780357.1376 1.869 0.255 0.2111 1.897 0.2111
1708780357.1447 1.875 0.256 0.2080 1.903 0.2080
1708780357.1525 1.881 0.257 0.2033 1.909 0.2033
1708780357.1618 1.887 0.258 0.1987 1.915 0.1987
1708780357.1684 1.893 0.259 0.1940 1.921 0.1940
1708780357.1773 1.899 0.261 0.1878 1.927 0.1878
1708780357.1860 1.905 0.262 0.1847 1.933 0.1847
1708780357.1926 1.911 0.263 0.1801 1.939 0.1801
1708780357.2012 1.917 0.264 0.1739 1.946 0.1739
1708780357.2100 1.923 0.265 0.1692 1.952 0.1692
1708780357.2166 1.929 0.266 0.1661 1.958 0.1661
1708780357.2245 1.936 0.267 0.1630 1.965 0.1630
1708780357.2342 1.942 0.268 0.1599 1.971 0.1599
1708780357.2408 1.948 0.269 0.1537 1.977 0.1537
1708780357.2487 1.955 0.270 0.1490 1.984 0.1490
1708780357.2586 1.960 0.271 0.1475 1.990 0.1475
1708780357.2652 1.966 0.272 0.1444 1.995 0.1444
1708780357.2739 1.973 0.273 0.1413 2.002 0.1413
1708780357.2818 1.979 0.274 0.1335 2.009 0.1335
1708780357.2884 1.986 0.275 0.1288 2.015 0.1288
1708780357.2970 1.992 0.275 0.1257 2.022 0.1257
1708780357.3059 1.997 0.276 0.1257 2.027 0.1257
1708780357.3124 2.004 0.277 0.1211 2.033 0.1211
1708780357.3204 2.011 0.278 0.1180 2.040 0.1180
1708780357.3303 2.017 0.278 0.1149 2.046 0.1149
1708780357.3369 2.022 0.279 0.1102 2.052 0.1102
1708780357.3444 2.029 0.280 0.1071 2.059 0.1071
1708780357.3544 2.035 0.280 0.1087 2.065 0.1087
1708780357.3610 2.041 0.281 0.1087 2.071 0.1087
1708780357.3687 2.047 0.282 0.1056 2.077 0.1056
1708780357.3784 2.054 0.282 0.1024 2.084 0.1024
1708780357.3849 2.060 0.283 0.1009 2.089 0.1009
1708780357.3935 2.067 0.284 0.1056 2.097 0.1056
1708780357.4023 2.073 0.284 0.1024 2.103 0.1024
1708780357.4087 2.079 0.285 0.0962 2.109 0.0962
1708780357.4165 2.085 0.286 0.0931 2.115 0.0931
1708780357.4265 2.091 0.286 0.0947 2.121 0.0947
1708780357.4331 2.097 0.287 0.0962 2.127 0.0962
1708780357.4414 2.104 0.287 0.0962 2.134 0.0962
1708780357.4499 2.110 0.288 0.0931 2.141 0.0931
1708780357.4573 2.116 0.289 0.0916 2.146 0.0916
1708780357.4651 2.123 0.289 0.0931 2.153 0.0931
1708780357.4741 2.129 0.290 0.0931 2.159 0.0931
1708780357.4809 2.136 0.290 0.0900 2.166 0.0900
1708780357.4889 2.142 0.291 0.0916 2.172 0.0916
1708780357.4985 2.147 0.291 0.0947 2.178 0.0947
1708780357.5049 2.154 0.292 0.0978 2.184 0.0978
1708780357.5128 2.160 0.293 0.0993 2.191 0.0993
1708780357.5221 2.166 0.293 0.0993 2.197 0.0993
1708780357.5288 2.173 0.294 0.1009 2.203 0.1009
1708780357.5367 2.179 0.295 0.1009 2.210 0.1009
1708780357.5462 2.185 0.295 0.1024 2.216 0.1024
1708780357.5528 2.191 0.296 0.1056 2.221 0.1056
1708780357.5606 2.197 0.296 0.1087 2.228 0.1087
1708780357.5706 2.203 0.297 0.1118 2.234 0.1118
1708780357.5772 2.209 0.298 0.1118 2.240 0.1118
1708780357.5851 2.216 0.299 0.1133 2.247 0.1133
1708780357.5947 2.222 0.299 0.1149 2.253 0.1149
1708780357.6012 2.227 0.300 0.1195 2.258 0.1195
1708780357.6091 2.234 0.301 0.1242 2.264 0.1242
1708780357.6180 2.240 0.301 0.1226 2.271 0.1226
1708780357.6246 2.246 0.302 0.1257 2.277 0.1257
1708780357.6332 2.253 0.303 0.1288 2.284 0.1288
1708780357.6421 2.258 0.304 0.1319 2.289 0.1319
1708780357.6484 2.265 0.305 0.1382 2.296 0.1382
1708780357.6573 2.272 0.306 0.1413 2.303 0.1413
1708780357.6667 2.277 0.306 0.1428 2.308 0.1428
1708780357.6733 2.284 0.307 0.1459 2.315 0.1459
1708780357.6811 2.291 0.308 0.1459 2.322 0.1459
1708780357.6900 2.296 0.309 0.1490 2.328 0.1490
1708780357.6963 2.302 0.310 0.1537 2.334 0.1537
1708780357.7043 2.308 0.311 0.1583 2.340 0.1583
1708780357.7149 2.314 0.312 0.1599 2.346 0.1599
1708780357.7207 2.320 0.313 0.1614 2.352 0.1614
1708780357.7285 2.327 0.314 0.1630 2.359 0.1630
1708780357.7385 2.332 0.315 0.1645 2.364 0.1645
1708780357.7446 2.338 0.316 0.1676 2.370 0.1676
1708780357.7525 2.344 0.317 0.1707 2.376 0.1707
1708780357.7624 2.351 0.318 0.1723 2.383 0.1723
1708780357.7689 2.357 0.319 0.1770 2.390 0.1770
1708780357.7767 2.364 0.320 0.1754 2.396 0.1754
1708780357.7857 2.369 0.321 0.1770 2.402 0.1770
1708780357.7930 2.375 0.322 0.1754 2.407 0.1754
1708780357.8009 2.382 0.324 0.1739 2.414 0.1739
1708780357.8099 2.388 0.325 0.1723 2.421 0.1723
1708780357.8173 2.394 0.326 0.1723 2.427 0.1723
1708780357.8251 2.401 0.327 0.1692 2.433 0.1692
1708780357.8341 2.407 0.328 0.1661 2.440 0.1661
1708780357.8407 2.413 0.329 0.1645 2.446 0.1645
1708780357.8493 2.419 0.330 0.1599 2.452 0.1599
1708780357.8581 2.425 0.331 0.1552 2.458 0.1552
1708780357.8646 2.432 0.332 0.1475 2.465 0.1475
1708780357.8735 2.438 0.333 0.1413 2.472 0.1413
1708780357.8821 2.445 0.334 0.1350 2.478 0.1350
1708780357.8898 2.451 0.335 0.1242 2.484 0.1242
1708780357.8973 2.457 0.335 0.1133 2.491 0.1133
1708780357.9059 2.464 0.336 0.0993 2.497 0.0993
1708780357.9139 2.469 0.337 0.0885 2.503 0.0885
1708780357.9217 2.476 0.337 0.0761 2.510 0.0761
1708780357.9301 2.483 0.338 0.0590 2.517 0.0590
1708780357.9377 2.489 0.338 0.0466 2.523 0.0466
1708780357.9453 2.495 0.338 0.0310 2.529 0.0310
1708780357.9540 2.502 0.338 0.0186 2.535 0.0186
1708780357.9616 2.508 0.338 0.0047 2.541 0.0047
1708780357.9694 2.514 0.338 -0.0124 2.547 -0.0124
