% Pose without folding and reset (log_20240224_133816.098/log_pose_abs.txt)
% 1 	Time (sec)
% 2,3 	Position x,y (m)
% 4 	heading (rad)
% 5 	Driven distance (m) - signed
% 6 	Turned angle (rad) - signed
1708778296.9146 0.000 0.000 0.0000 0.000 0.0000
1708778296.9222 0.000 0.000 0.0000 0.000 0.0000
1708778296.9295 0.000 0.000 0.0000 0.000 0.0000
1708778296.9370 0.000 0.000 0.0000 0.000 0.0000
1708778296.9450 0.000 0.000 0.0000 0.000 0.0000
1708778296.9530 0.000 0.000 0.0000 0.000 0.0000
1708778296.9605 0.000 0.000 0.0000 0.000 0.0000
1708778296.9695 0.000 0.000 0.0000 0.000 0.0000
1708778296.9769 0.000 0.000 0.0000 0.000 0.0000
1708778296.9853 0.000 0.000 0.0000 0.000 0.0000
1708778296.9936 0.000 0.000 0.0016 0.000 0.0016
1708778297.0007 0.001 0.000 0.0093 0.001 0.0093
1708778297.0088 0.004 0.000 0.0047 0.004 0.0047
1708778297.0169 0.005 0.000 -0.0031 0.005 -0.0031
1708778297.0253 0.006 0.000 -0.0000 0.006 -0.0000
1708778297.0335 0.008 0.000 0.0016 0.008 0.0016
1708778297.0419 0.011 0.000 -0.0016 0.011 -0.0016
1708778297.0490 0.014 0.000 -0.0000 0.014 -0.0000
1708778297.0570 0.016 0.000 -0.0031 0.016 -0.0031
1708778297.0651 0.019 0.000 -0.0031 0.019 -0.0031
1708778297.0733 0.022 0.000 -0.0016 0.022 -0.0016
1708778297.0813 0.026 -0.000 -0.0016 0.026 -0.0016
1708778297.0896 0.029 -0.000 -0.0016 0.029 -0.0016
1708778297.0968 0.033 -0.000 -0.0016 0.033 -0.0016
1708778297.1052 0.037 -0.000 -0.0000 0.037 -0.0000
1708778297.1135 0.040 -0.000 -0.0016 0.040 -0.0016
1708778297.1206 0.044 -0.000 -0.0016 0.044 -0.0016
1708778297.1287 0.048 -0.000 -0.0000 0.048 -0.0000
1708778297.1383 0.052 -0.000 -0.0000 0.052 -0.0000
1708778297.1446 0.057 -0.000 -0.0016 0.057 -0.0016
1708778297.1528 0.062 -0.000 -0.0000 0.062 -0.0000
1708778297.1662 0.066 -0.000 0.0031 0.066 0.0031
1708778297.1692 0.070 -0.000 0.0047 0.070 0.0047
1708778297.1764 0.074 0.000 0.0047 0.074 0.0047
1708778297.1851 0.077 0.000 0.0016 0.077 0.0016
1708778297.1929 0.081 0.000 0.0016 0.081 0.0016
1708778297.2006 0.085 0.000 -0.0000 0.085 -0.0000
1708778297.2096 0.089 0.000 -0.0000 0.089 -0.0000
1708778297.2179 0.093 0.000 0.0016 0.093 0.0016
1708778297.2247 0.097 0.000 0.0031 0.097 0.0031
1708778297.2353 0.101 0.000 0.0031 0.101 0.0031
1708778297.2434 0.105 0.000 0.0031 0.105 0.0031
1708778297.2540 0.108 0.000 0.0016 0.108 0.0016
1708778297.2571 0.113 0.000 0.0047 0.113 0.0047
1708778297.2684 0.116 0.000 0.0047 0.116 0.0047
1708778297.2732 0.117 0.000 0.0047 0.117 0.0047
1708778297.2811 0.119 0.000 0.0062 0.119 0.0062
1708778297.2896 0.123 0.000 0.0078 0.123 0.0078
1708778297.3007 0.128 0.000 0.0078 0.128 0.0078
1708778297.3058 0.133 0.000 0.0062 0.133 0.0062
1708778297.3226 0.136 0.000 0.0062 0.136 0.0062
1708778297.3255 0.138 0.000 0.0109 0.138 0.0109
1708778297.3323 0.140 0.000 0.0124 0.140 0.0124
1708778297.3372 0.143 0.000 0.0093 0.143 0.0093
1708778297.3453 0.147 0.000 0.0078 0.147 0.0078
1708778297.3538 0.150 0.000 0.0109 0.150 0.0109
1708778297.3614 0.154 0.000 0.0171 0.154 0.0171
1708778297.3687 0.159 0.001 0.0202 0.159 0.0202
1708778297.3778 0.162 0.001 0.0171 0.162 0.0171
1708778297.3854 0.165 0.001 0.0171 0.165 0.0171
1708778297.3932 0.169 0.001 0.0202 0.169 0.0202
1708778297.4017 0.174 0.001 0.0248 0.174 0.0248
1708778297.4085 0.177 0.001 0.0264 0.177 0.0264
1708778297.4173 0.181 0.001 0.0279 0.181 0.0279
1708778297.4259 0.185 0.001 0.0295 0.185 0.0295
1708778297.4331 0.189 0.001 0.0341 0.189 0.0341
1708778297.4413 0.194 0.001 0.0357 0.194 0.0357
1708778297.4489 0.198 0.002 0.0373 0.198 0.0373
1708778297.4566 0.202 0.002 0.0388 0.202 0.0388
1708778297.4646 0.205 0.002 0.0404 0.205 0.0404
1708778297.4743 0.209 0.002 0.0419 0.209 0.0419
1708778297.4808 0.214 0.002 0.0450 0.214 0.0450
1708778297.4888 0.218 0.002 0.0466 0.218 0.0466
1708778297.4970 0.222 0.003 0.0481 0.222 0.0481
1708778297.5053 0.225 0.003 0.0497 0.225 0.0497
1708778297.5131 0.230 0.003 0.0497 0.230 0.0497
1708778297.5208 0.234 0.003 0.0497 0.234 0.0497
1708778297.5291 0.238 0.003 0.0497 0.238 0.0497
1708778297.5369 0.241 0.004 0.0497 0.241 0.0497
1708778297.5451 0.246 0.004 0.0512 0.246 0.0512
1708778297.5533 0.250 0.004 0.0512 0.250 0.0512
1708778297.5609 0.254 0.004 0.0528 0.254 0.0528
1708778297.5691 0.258 0.004 0.0528 0.258 0.0528
1708778297.5771 0.261 0.005 0.0497 0.261 0.0497
1708778297.5849 0.265 0.005 0.0512 0.265 0.0512
1708778297.5931 0.270 0.005 0.0512 0.270 0.0512
1708778297.6015 0.274 0.005 0.0543 0.274 0.0543
1708778297.6091 0.277 0.005 0.0543 0.277 0.0543
1708778297.6173 0.281 0.006 0.0528 0.281 0.0528
1708778297.6252 0.285 0.006 0.0497 0.286 0.0497
1708778297.6332 0.290 0.006 0.0497 0.290 0.0497
1708778297.6415 0.293 0.006 0.0528 0.293 0.0528
1708778297.6497 0.297 0.006 0.0528 0.297 0.0528
1708778297.6564 0.301 0.007 0.0528 0.301 0.0528
1708778297.6658 0.305 0.007 0.0512 0.305 0.0512
1708778297.6726 0.309 0.007 0.0512 0.309 0.0512
1708778297.6815 0.313 0.007 0.0512 0.313 0.0512
1708778297.6897 0.316 0.007 0.0512 0.317 0.0512
1708778297.6968 0.321 0.008 0.0512 0.321 0.0512
1708778297.7047 0.325 0.008 0.0497 0.325 0.0497
1708778297.7129 0.329 0.008 0.0512 0.329 0.0512
1708778297.7208 0.332 0.008 0.0512 0.332 0.0512
1708778297.7287 0.336 0.008 0.0512 0.336 0.0512
1708778297.7369 0.341 0.009 0.0512 0.341 0.0512
1708778297.7451 0.345 0.009 0.0497 0.345 0.0497
1708778297.7528 0.348 0.009 0.0512 0.348 0.0512
1708778297.7610 0.352 0.009 0.0512 0.352 0.0512
1708778297.7694 0.356 0.009 0.0497 0.356 0.0497
1708778297.7768 0.361 0.010 0.0466 0.361 0.0466
1708778297.7859 0.365 0.010 0.0481 0.365 0.0481
1708778297.7932 0.368 0.010 0.0497 0.368 0.0497
1708778297.8009 0.372 0.010 0.0497 0.372 0.0497
1708778297.8092 0.376 0.010 0.0481 0.377 0.0481
1708778297.8164 0.381 0.011 0.0481 0.381 0.0481
1708778297.8249 0.384 0.011 0.0497 0.384 0.0497
1708778297.8330 0.387 0.011 0.0512 0.388 0.0512
1708778297.8414 0.391 0.011 0.0512 0.392 0.0512
1708778297.8492 0.396 0.011 0.0497 0.396 0.0497
1708778297.8574 0.400 0.012 0.0512 0.400 0.0512
1708778297.8647 0.404 0.012 0.0512 0.404 0.0512
1708778297.8733 0.408 0.012 0.0512 0.408 0.0512
1708778297.8814 0.412 0.012 0.0497 0.412 0.0497
1708778297.8891 0.416 0.012 0.0481 0.416 0.0481
1708778297.8970 0.420 0.013 0.0497 0.420 0.0497
1708778297.9051 0.423 0.013 0.0497 0.424 0.0497
1708778297.9133 0.427 0.013 0.0481 0.428 0.0481
1708778297.9206 0.432 0.013 0.0481 0.432 0.0481
1708778297.9299 0.436 0.013 0.0497 0.436 0.0497
1708778297.9371 0.440 0.014 0.0512 0.440 0.0512
1708778297.9449 0.443 0.014 0.0512 0.444 0.0512
1708778297.9532 0.448 0.014 0.0497 0.448 0.0497
1708778297.9604 0.452 0.014 0.0497 0.452 0.0497
1708778297.9686 0.456 0.014 0.0512 0.456 0.0512
1708778297.9777 0.459 0.015 0.0528 0.459 0.0528
1708778297.9849 0.463 0.015 0.0512 0.463 0.0512
1708778297.9928 0.468 0.015 0.0497 0.468 0.0497
1708778298.0011 0.472 0.015 0.0497 0.472 0.0497
1708778298.0092 0.475 0.015 0.0512 0.476 0.0512
1708778298.0172 0.479 0.016 0.0512 0.480 0.0512
1708778298.0250 0.484 0.016 0.0466 0.484 0.0466
1708778298.0333 0.488 0.016 0.0450 0.488 0.0450
1708778298.0411 0.492 0.016 0.0450 0.492 0.0450
1708778298.0494 0.495 0.016 0.0481 0.496 0.0481
1708778298.0565 0.499 0.017 0.0497 0.500 0.0497
1708778298.0654 0.504 0.017 0.0466 0.504 0.0466
1708778298.0733 0.507 0.017 0.0450 0.508 0.0450
1708778298.0806 0.511 0.017 0.0435 0.511 0.0435
1708778298.0884 0.515 0.017 0.0435 0.515 0.0435
1708778298.0977 0.519 0.017 0.0435 0.519 0.0435
1708778298.1049 0.523 0.018 0.0450 0.523 0.0450
1708778298.1127 0.527 0.018 0.0435 0.528 0.0435
1708778298.1217 0.531 0.018 0.0435 0.531 0.0435
1708778298.1289 0.534 0.018 0.0466 0.535 0.0466
1708778298.1367 0.539 0.018 0.0466 0.539 0.0466
1708778298.1459 0.543 0.018 0.0450 0.543 0.0450
1708778298.1531 0.547 0.019 0.0450 0.547 0.0450
1708778298.1609 0.550 0.019 0.0450 0.551 0.0450
1708778298.1691 0.555 0.019 0.0450 0.555 0.0450
1708778298.1770 0.559 0.019 0.0450 0.559 0.0450
1708778298.1849 0.563 0.019 0.0450 0.563 0.0450
1708778298.1929 0.567 0.020 0.0450 0.567 0.0450
1708778298.2013 0.570 0.020 0.0466 0.571 0.0466
1708778298.2092 0.574 0.020 0.0466 0.575 0.0466
1708778298.2175 0.579 0.020 0.0466 0.579 0.0466
1708778298.2244 0.583 0.020 0.0466 0.584 0.0466
1708778298.2333 0.586 0.020 0.0466 0.587 0.0466
1708778298.2415 0.590 0.021 0.0497 0.590 0.0497
1708778298.2487 0.594 0.021 0.0497 0.595 0.0497
1708778298.2565 0.599 0.021 0.0466 0.600 0.0466
1708778298.2658 0.603 0.021 0.0466 0.604 0.0466
1708778298.2726 0.606 0.021 0.0497 0.607 0.0497
1708778298.2814 0.610 0.022 0.0512 0.610 0.0512
1708778298.2896 0.614 0.022 0.0481 0.615 0.0481
1708778298.2968 0.619 0.022 0.0481 0.620 0.0481
1708778298.3046 0.623 0.022 0.0497 0.624 0.0497
1708778298.3129 0.626 0.022 0.0512 0.627 0.0512
1708778298.3209 0.630 0.023 0.0497 0.630 0.0497
1708778298.3285 0.634 0.023 0.0466 0.634 0.0466
1708778298.3379 0.639 0.023 0.0481 0.639 0.0481
1708778298.3453 0.642 0.023 0.0481 0.643 0.0481
1708778298.3531 0.646 0.023 0.0481 0.647 0.0481
1708778298.3614 0.650 0.024 0.0466 0.651 0.0466
1708778298.3695 0.654 0.024 0.0435 0.655 0.0435
1708778298.3773 0.659 0.024 0.0450 0.659 0.0450
1708778298.3856 0.662 0.024 0.0481 0.663 0.0481
1708778298.3946 0.666 0.024 0.0466 0.667 0.0466
1708778298.4006 0.670 0.024 0.0435 0.671 0.0435
1708778298.4097 0.674 0.025 0.0435 0.675 0.0435
1708778298.4168 0.677 0.025 0.0481 0.678 0.0481
1708778298.4245 0.681 0.025 0.0481 0.682 0.0481
1708778298.4339 0.686 0.025 0.0466 0.686 0.0466
1708778298.4413 0.690 0.025 0.0435 0.690 0.0435
1708778298.4492 0.694 0.026 0.0450 0.695 0.0450
1708778298.4575 0.698 0.026 0.0481 0.698 0.0481
1708778298.4646 0.701 0.026 0.0466 0.702 0.0466
1708778298.4732 0.705 0.026 0.0450 0.706 0.0450
1708778298.4815 0.709 0.026 0.0481 0.710 0.0481
1708778298.4888 0.714 0.027 0.0497 0.714 0.0497
1708778298.4967 0.718 0.027 0.0466 0.719 0.0466
1708778298.5049 0.721 0.027 0.0450 0.722 0.0450
1708778298.5133 0.725 0.027 0.0466 0.725 0.0466
1708778298.5208 0.729 0.027 0.0497 0.730 0.0497
1708778298.5290 0.734 0.027 0.0481 0.734 0.0481
1708778298.5373 0.737 0.028 0.0450 0.738 0.0450
1708778298.5451 0.741 0.028 0.0450 0.741 0.0450
1708778298.5532 0.745 0.028 0.0528 0.746 0.0528
1708778298.5605 0.750 0.028 0.0528 0.751 0.0528
1708778298.5694 0.754 0.028 0.0497 0.755 0.0497
1708778298.5774 0.757 0.029 0.0466 0.758 0.0466
1708778298.5854 0.761 0.029 0.0466 0.762 0.0466
1708778298.5933 0.766 0.029 0.0497 0.766 0.0497
1708778298.6014 0.770 0.029 0.0481 0.771 0.0481
1708778298.6086 0.774 0.029 0.0481 0.775 0.0481
1708778298.6165 0.777 0.030 0.0481 0.778 0.0481
1708778298.6254 0.781 0.030 0.0497 0.782 0.0497
1708778298.6327 0.785 0.030 0.0481 0.786 0.0481
1708778298.6406 0.790 0.030 0.0481 0.790 0.0481
1708778298.6499 0.793 0.030 0.0512 0.794 0.0512
1708778298.6571 0.797 0.031 0.0543 0.798 0.0543
1708778298.6649 0.801 0.031 0.0528 0.802 0.0528
1708778298.6729 0.805 0.031 0.0481 0.806 0.0481
1708778298.6812 0.809 0.031 0.0450 0.810 0.0450
1708778298.6887 0.813 0.031 0.0497 0.814 0.0497
1708778298.6970 0.817 0.032 0.0497 0.817 0.0497
1708778298.7046 0.820 0.032 0.0466 0.821 0.0466
1708778298.7124 0.825 0.032 0.0435 0.825 0.0435
1708778298.7214 0.829 0.032 0.0435 0.829 0.0435
1708778298.7296 0.832 0.032 0.0466 0.833 0.0466
1708778298.7374 0.837 0.032 0.0435 0.837 0.0435
1708778298.7456 0.841 0.033 0.0404 0.842 0.0404
1708778298.7528 0.845 0.033 0.0435 0.846 0.0435
1708778298.7606 0.849 0.033 0.0450 0.850 0.0450
1708778298.7689 0.853 0.033 0.0419 0.853 0.0419
1708778298.7773 0.856 0.033 0.0357 0.857 0.0357
1708778298.7853 0.861 0.033 0.0357 0.862 0.0357
1708778298.7936 0.865 0.034 0.0373 0.866 0.0373
1708778298.8009 0.869 0.034 0.0388 0.870 0.0388
1708778298.8087 0.872 0.034 0.0373 0.873 0.0373
1708778298.8169 0.876 0.034 0.0310 0.877 0.0310
1708778298.8247 0.881 0.034 0.0295 0.881 0.0295
1708778298.8325 0.884 0.034 0.0341 0.885 0.0341
1708778298.8418 0.888 0.034 0.0357 0.889 0.0357
1708778298.8490 0.892 0.035 0.0326 0.893 0.0326
1708778298.8568 0.896 0.035 0.0295 0.897 0.0295
1708778298.8649 0.901 0.035 0.0295 0.901 0.0295
1708778298.8729 0.904 0.035 0.0310 0.905 0.0310
1708778298.8807 0.908 0.035 0.0295 0.908 0.0295
1708778298.8889 0.912 0.035 0.0279 0.913 0.0279
1708778298.8972 0.916 0.035 0.0264 0.917 0.0264
1708778298.9048 0.920 0.035 0.0248 0.921 0.0248
1708778298.9139 0.924 0.035 0.0248 0.925 0.0248
1708778298.9208 0.928 0.036 0.0279 0.929 0.0279
1708778298.9286 0.932 0.036 0.0279 0.933 0.0279
1708778298.9368 0.936 0.036 0.0248 0.937 0.0248
1708778298.9452 0.940 0.036 0.0233 0.941 0.0233
1708778298.9530 0.944 0.036 0.0264 0.945 0.0264
1708778298.9613 0.948 0.036 0.0264 0.949 0.0264
1708778298.9689 0.953 0.036 0.0248 0.954 0.0248
1708778298.9774 0.956 0.036 0.0233 0.957 0.0233
1708778298.9856 0.960 0.036 0.0233 0.961 0.0233
1708778298.9928 0.964 0.036 0.0217 0.964 0.0217
1708778299.0004 0.968 0.037 0.0233 0.969 0.0233
1708778299.0097 0.972 0.037 0.0233 0.973 0.0233
1708778299.0170 0.976 0.037 0.0217 0.977 0.0217
1708778299.0244 0.980 0.037 0.0202 0.981 0.0202
1708778299.0337 0.984 0.037 0.0186 0.985 0.0186
1708778299.0412 0.988 0.037 0.0186 0.989 0.0186
1708778299.0484 0.992 0.037 0.0186 0.992 0.0186
1708778299.0569 0.995 0.037 0.0171 0.996 0.0171
1708778299.0652 0.999 0.037 0.0140 1.000 0.0140
1708778299.0727 1.003 0.037 0.0124 1.004 0.0124
1708778299.0809 1.008 0.037 0.0140 1.009 0.0140
1708778299.0892 1.012 0.037 0.0140 1.013 0.0140
1708778299.0971 1.015 0.037 0.0124 1.016 0.0124
1708778299.1054 1.019 0.037 0.0093 1.020 0.0093
1708778299.1126 1.024 0.037 0.0078 1.025 0.0078
1708778299.1214 1.027 0.037 0.0093 1.028 0.0093
1708778299.1297 1.031 0.037 0.0109 1.031 0.0109
1708778299.1368 1.035 0.038 0.0093 1.036 0.0093
1708778299.1447 1.040 0.038 0.0078 1.041 0.0078
1708778299.1530 1.044 0.038 0.0078 1.045 0.0078
1708778299.1613 1.047 0.038 0.0078 1.048 0.0078
1708778299.1693 1.051 0.038 0.0078 1.052 0.0078
1708778299.1772 1.055 0.038 0.0062 1.056 0.0062
1708778299.1844 1.059 0.038 0.0062 1.060 0.0062
1708778299.1934 1.063 0.038 0.0062 1.064 0.0062
1708778299.2016 1.066 0.038 0.0078 1.067 0.0078
1708778299.2089 1.071 0.038 0.0062 1.072 0.0062
1708778299.2167 1.075 0.038 0.0047 1.076 0.0047
1708778299.2255 1.080 0.038 0.0047 1.080 0.0047
1708778299.2327 1.083 0.038 0.0062 1.084 0.0062
1708778299.2405 1.087 0.038 0.0047 1.088 0.0047
1708778299.2498 1.091 0.038 0.0031 1.092 0.0031
1708778299.2570 1.095 0.038 0.0031 1.096 0.0031
1708778299.2648 1.099 0.038 0.0031 1.100 0.0031
1708778299.2737 1.103 0.038 0.0031 1.104 0.0031
1708778299.2813 1.107 0.038 0.0047 1.108 0.0047
1708778299.2893 1.111 0.038 0.0047 1.112 0.0047
1708778299.2977 1.115 0.038 0.0031 1.116 0.0031
1708778299.3053 1.120 0.038 0.0016 1.120 0.0016
1708778299.3134 1.123 0.038 0.0031 1.124 0.0031
1708778299.3213 1.126 0.038 0.0047 1.127 0.0047
1708778299.3288 1.130 0.038 0.0062 1.131 0.0062
1708778299.3367 1.135 0.038 0.0047 1.136 0.0047
1708778299.3451 1.139 0.038 0.0016 1.140 0.0016
1708778299.3528 1.143 0.038 0.0016 1.143 0.0016
1708778299.3607 1.146 0.038 0.0062 1.147 0.0062
1708778299.3697 1.151 0.038 0.0047 1.151 0.0047
1708778299.3770 1.155 0.038 0.0016 1.156 0.0016
1708778299.3851 1.158 0.038 0.0016 1.159 0.0016
1708778299.3938 1.162 0.038 0.0062 1.163 0.0062
1708778299.4012 1.166 0.038 0.0093 1.167 0.0093
1708778299.4088 1.170 0.038 0.0062 1.171 0.0062
1708778299.4176 1.175 0.038 0.0016 1.176 0.0016
1708778299.4249 1.178 0.038 -0.0000 1.179 -0.0000
1708778299.4332 1.182 0.038 0.0047 1.183 0.0047
1708778299.4416 1.186 0.038 0.0062 1.187 0.0062
1708778299.4501 1.190 0.038 0.0031 1.191 0.0031
1708778299.4571 1.195 0.038 -0.0000 1.196 -0.0000
1708778299.4656 1.199 0.038 0.0031 1.200 0.0031
1708778299.4726 1.203 0.038 0.0047 1.203 0.0047
1708778299.4810 1.206 0.038 0.0047 1.207 0.0047
1708778299.4896 1.210 0.038 0.0016 1.211 0.0016
1708778299.4972 1.215 0.038 0.0016 1.216 0.0016
1708778299.5051 1.219 0.038 0.0047 1.220 0.0047
1708778299.5129 1.222 0.038 0.0078 1.223 0.0078
1708778299.5212 1.226 0.038 0.0093 1.227 0.0093
1708778299.5285 1.230 0.038 0.0078 1.231 0.0078
1708778299.5379 1.234 0.038 0.0047 1.235 0.0047
1708778299.5451 1.238 0.038 0.0031 1.239 0.0031
1708778299.5531 1.242 0.039 0.0062 1.243 0.0062
1708778299.5613 1.246 0.039 0.0078 1.247 0.0078
1708778299.5687 1.250 0.039 0.0062 1.251 0.0062
1708778299.5771 1.254 0.039 0.0047 1.255 0.0047
1708778299.5851 1.258 0.039 0.0062 1.259 0.0062
1708778299.5925 1.262 0.039 0.0093 1.263 0.0093
1708778299.6013 1.266 0.039 0.0078 1.267 0.0078
1708778299.6095 1.270 0.039 0.0031 1.271 0.0031
1708778299.6168 1.274 0.039 0.0047 1.275 0.0047
1708778299.6254 1.278 0.039 0.0062 1.279 0.0062
1708778299.6334 1.282 0.039 0.0062 1.282 0.0062
1708778299.6408 1.286 0.039 0.0031 1.287 0.0031
1708778299.6487 1.290 0.039 0.0031 1.291 0.0031
1708778299.6569 1.294 0.039 0.0047 1.295 0.0047
1708778299.6653 1.298 0.039 0.0047 1.299 0.0047
1708778299.6727 1.302 0.039 0.0047 1.303 0.0047
1708778299.6819 1.306 0.039 0.0062 1.307 0.0062
1708778299.6895 1.310 0.039 0.0047 1.311 0.0047
1708778299.6973 1.314 0.039 0.0047 1.315 0.0047
1708778299.7056 1.318 0.039 0.0047 1.319 0.0047
1708778299.7128 1.322 0.039 0.0062 1.322 0.0062
1708778299.7211 1.326 0.039 0.0078 1.326 0.0078
1708778299.7294 1.330 0.039 0.0062 1.331 0.0062
1708778299.7367 1.334 0.039 0.0031 1.335 0.0031
1708778299.7444 1.338 0.039 0.0047 1.339 0.0047
1708778299.7537 1.341 0.039 0.0078 1.342 0.0078
1708778299.7610 1.346 0.039 0.0078 1.346 0.0078
1708778299.7687 1.350 0.039 0.0062 1.351 0.0062
1708778299.7777 1.354 0.039 0.0062 1.355 0.0062
1708778299.7849 1.357 0.039 0.0062 1.358 0.0062
1708778299.7927 1.362 0.039 0.0062 1.362 0.0062
1708778299.8010 1.366 0.039 0.0062 1.367 0.0062
1708778299.8091 1.370 0.039 0.0047 1.371 0.0047
1708778299.8169 1.373 0.039 0.0062 1.374 0.0062
1708778299.8258 1.377 0.039 0.0062 1.378 0.0062
1708778299.8331 1.382 0.039 0.0047 1.383 0.0047
1708778299.8410 1.386 0.039 0.0047 1.386 0.0047
1708778299.8492 1.389 0.039 0.0047 1.390 0.0047
1708778299.8574 1.393 0.039 0.0047 1.394 0.0047
1708778299.8654 1.397 0.039 0.0031 1.398 0.0031
1708778299.8732 1.402 0.039 0.0031 1.402 0.0031
1708778299.8805 1.405 0.039 0.0062 1.406 0.0062
1708778299.8885 1.409 0.039 0.0078 1.410 0.0078
1708778299.8978 1.413 0.039 0.0047 1.414 0.0047
1708778299.9046 1.417 0.039 0.0031 1.418 0.0031
1708778299.9134 1.422 0.039 0.0047 1.423 0.0047
1708778299.9212 1.425 0.040 0.0078 1.426 0.0078
1708778299.9294 1.429 0.040 0.0078 1.430 0.0078
1708778299.9372 1.433 0.040 0.0078 1.434 0.0078
1708778299.9453 1.438 0.040 0.0047 1.438 0.0047
1708778299.9525 1.442 0.040 0.0062 1.442 0.0062
1708778299.9614 1.445 0.040 0.0078 1.446 0.0078
1708778299.9696 1.449 0.040 0.0062 1.450 0.0062
1708778299.9766 1.453 0.040 0.0062 1.454 0.0062
1708778299.9854 1.458 0.040 0.0062 1.459 0.0062
1708778299.9935 1.462 0.040 0.0062 1.462 0.0062
1708778300.0007 1.465 0.040 0.0062 1.466 0.0062
1708778300.0086 1.469 0.040 0.0062 1.470 0.0062
1708778300.0169 1.473 0.040 0.0078 1.474 0.0078
1708778300.0249 1.477 0.040 0.0062 1.478 0.0062
1708778300.0327 1.481 0.040 0.0047 1.482 0.0047
1708778300.0420 1.485 0.040 0.0062 1.486 0.0062
1708778300.0493 1.489 0.040 0.0093 1.490 0.0093
1708778300.0573 1.493 0.040 0.0078 1.494 0.0078
1708778300.0655 1.497 0.040 0.0062 1.498 0.0062
1708778300.0724 1.501 0.040 0.0062 1.502 0.0062
1708778300.0813 1.505 0.040 0.0062 1.506 0.0062
1708778300.0896 1.508 0.040 0.0078 1.509 0.0078
1708778300.0969 1.512 0.040 0.0078 1.513 0.0078
1708778300.1047 1.517 0.040 0.0062 1.517 0.0062
1708778300.1130 1.520 0.040 0.0016 1.521 0.0016
1708778300.1209 1.524 0.040 0.0047 1.524 0.0047
1708778300.1285 1.528 0.040 0.0062 1.529 0.0062
1708778300.1378 1.532 0.040 0.0062 1.533 0.0062
1708778300.1454 1.537 0.040 0.0062 1.537 0.0062
1708778300.1533 1.541 0.040 0.0047 1.541 0.0047
1708778300.1615 1.544 0.040 0.0047 1.545 0.0047
1708778300.1696 1.548 0.040 0.0062 1.549 0.0062
1708778300.1771 1.552 0.040 0.0062 1.553 0.0062
1708778300.1853 1.557 0.040 0.0047 1.558 0.0047
1708778300.1925 1.560 0.040 0.0047 1.561 0.0047
