% Encoder logfile
% 1 	Time (sec)
% 2,3 	enc left, right
% 4,5 	encoder change left, right
1708778296.9146 0 0 0 0
1708778296.9222 0 0 0 0
1708778296.9295 0 0 0 0
1708778296.9370 0 0 0 0
1708778296.9450 0 0 0 0
1708778296.9530 0 0 0 0
1708778296.9605 0 0 0 0
1708778296.9695 0 0 0 0
1708778296.9769 0 0 0 0
1708778296.9853 0 0 0 0
1708778296.9936 0 1 0 1
1708778297.0007 6 6 6 5
1708778297.0088 14 11 8 5
1708778297.0169 21 13 7 2
1708778297.0253 23 17 2 4
1708778297.0335 28 23 5 6
1708778297.0419 36 29 8 6
1708778297.0490 42 36 6 7
1708778297.0570 50 42 8 6
1708778297.0651 58 50 8 8
1708778297.0733 66 59 8 9
1708778297.0813 75 68 9 9
1708778297.0896 84 77 9 9
1708778297.0968 94 87 10 10
1708778297.1052 103 97 9 10
1708778297.1135 113 106 10 9
1708778297.1206 124 117 11 11
1708778297.1287 134 128 10 11
1708778297.1383 145 139 11 11
1708778297.1446 158 151 13 12
1708778297.1528 171 165 13 14
1708778297.1662 180 176 9 11
1708778297.1692 189 186 9 10
1708778297.1764 201 198 12 12
1708778297.1851 210 205 9 7
1708778297.1929 219 214 9 9
1708778297.2006 231 225 12 11
1708778297.2096 243 237 12 12
1708778297.2179 253 248 10 11
1708778297.2247 263 259 10 11
1708778297.2353 274 270 11 11
1708778297.2434 283 279 9 9
1708778297.2540 292 287 9 8
1708778297.2571 303 300 11 13
1708778297.2684 313 310 10 10
1708778297.2732 315 312 2 2
1708778297.2811 319 317 4 5
1708778297.2896 329 328 10 11
1708778297.3007 344 343 15 15
1708778297.3058 356 354 12 11
1708778297.3226 365 363 9 9
1708778297.3255 369 370 4 7
1708778297.3323 373 375 4 5
1708778297.3372 381 381 8 6
1708778297.3453 392 391 11 10
1708778297.3538 401 402 9 11
1708778297.3614 410 415 9 13
1708778297.3687 421 428 11 13
1708778297.3778 431 436 10 8
1708778297.3854 439 444 8 8
1708778297.3932 448 455 9 11
1708778297.4017 458 468 10 13
1708778297.4085 467 478 9 10
1708778297.4173 476 488 9 10
1708778297.4259 486 499 10 11
1708778297.4331 497 513 11 14
1708778297.4413 509 526 12 13
1708778297.4489 519 537 10 11
1708778297.4566 528 547 9 10
1708778297.4646 537 557 9 10
1708778297.4743 547 568 10 11
1708778297.4808 558 581 11 13
1708778297.4888 569 593 11 12
1708778297.4970 578 603 9 10
1708778297.5053 587 613 9 10
1708778297.5131 599 625 12 12
1708778297.5208 611 637 12 12
1708778297.5291 621 647 10 10
1708778297.5369 630 656 9 9
1708778297.5451 641 668 11 12
1708778297.5533 653 680 12 12
1708778297.5609 663 691 10 11
1708778297.5691 672 700 9 9
1708778297.5771 682 708 10 8
1708778297.5849 693 720 11 12
1708778297.5931 705 732 12 12
1708778297.6015 714 743 9 11
1708778297.6091 723 752 9 9
1708778297.6173 734 762 11 10
1708778297.6252 747 773 13 11
1708778297.6332 758 784 11 11
1708778297.6415 767 795 9 11
1708778297.6497 776 804 9 9
1708778297.6564 787 815 11 11
1708778297.6658 799 826 12 11
1708778297.6726 809 836 10 10
1708778297.6815 819 846 10 10
1708778297.6897 829 856 10 10
1708778297.6968 840 867 11 11
1708778297.7047 852 878 12 11
1708778297.7129 861 888 9 10
1708778297.7208 870 897 9 9
1708778297.7287 881 908 11 11
1708778297.7369 893 920 12 12
1708778297.7451 904 930 11 10
1708778297.7528 913 940 9 10
1708778297.7610 923 950 10 10
1708778297.7694 935 961 12 11
1708778297.7768 948 972 13 11
1708778297.7859 958 983 10 11
1708778297.7932 966 992 8 9
1708778297.8009 977 1003 11 11
1708778297.8092 989 1014 12 11
1708778297.8164 1000 1025 11 11
1708778297.8249 1009 1035 9 10
1708778297.8330 1017 1044 8 9
1708778297.8414 1028 1055 11 11
1708778297.8492 1040 1066 12 11
1708778297.8574 1050 1077 10 11
1708778297.8647 1060 1087 10 10
1708778297.8733 1071 1098 11 11
1708778297.8814 1082 1108 11 10
1708778297.8891 1094 1119 12 11
1708778297.8970 1104 1130 10 11
1708778297.9051 1113 1139 9 9
1708778297.9133 1124 1149 11 10
1708778297.9206 1136 1161 12 12
1708778297.9299 1147 1173 11 12
1708778297.9371 1156 1183 9 10
1708778297.9449 1166 1193 10 10
1708778297.9532 1178 1204 12 11
1708778297.9604 1189 1215 11 11
1708778297.9686 1198 1225 9 10
1708778297.9777 1207 1235 9 10
1708778297.9849 1218 1245 11 10
1708778297.9928 1231 1257 13 12
1708778298.0011 1242 1268 11 11
1708778298.0092 1251 1278 9 10
1708778298.0172 1261 1288 10 10
1708778298.0250 1274 1298 13 10
1708778298.0333 1286 1309 12 11
1708778298.0411 1296 1319 10 10
1708778298.0494 1305 1330 9 11
1708778298.0565 1315 1341 10 11
1708778298.0654 1327 1351 12 10
1708778298.0733 1338 1361 11 10
1708778298.0806 1348 1370 10 9
1708778298.0884 1358 1380 10 10
1708778298.0977 1368 1390 10 10
1708778298.1049 1379 1402 11 12
1708778298.1127 1391 1413 12 11
1708778298.1217 1401 1423 10 10
1708778298.1289 1409 1433 8 10
1708778298.1367 1420 1444 11 11
1708778298.1459 1432 1455 12 11
1708778298.1531 1442 1465 10 10
1708778298.1609 1452 1475 10 10
1708778298.1691 1463 1486 11 11
1708778298.1770 1474 1497 11 11
1708778298.1849 1485 1508 11 11
1708778298.1929 1495 1518 10 10
1708778298.2013 1504 1528 9 10
1708778298.2092 1515 1539 11 11
1708778298.2175 1527 1551 12 12
1708778298.2244 1538 1562 11 11
1708778298.2333 1547 1571 9 9
1708778298.2415 1555 1581 8 10
1708778298.2487 1567 1593 12 12
1708778298.2565 1581 1605 14 12
1708778298.2658 1591 1615 10 10
1708778298.2726 1598 1624 7 9
1708778298.2814 1608 1635 10 11
1708778298.2896 1620 1645 12 10
1708778298.2968 1633 1658 13 13
1708778298.3046 1643 1669 10 11
1708778298.3129 1651 1678 8 9
1708778298.3209 1661 1687 10 9
1708778298.3285 1673 1697 12 10
1708778298.3379 1685 1710 12 13
1708778298.3453 1695 1720 10 10
1708778298.3531 1705 1730 10 10
1708778298.3614 1716 1740 11 10
1708778298.3695 1728 1750 12 10
1708778298.3773 1739 1762 11 12
1708778298.3856 1748 1773 9 11
1708778298.3946 1758 1782 10 9
1708778298.4006 1770 1792 12 10
1708778298.4097 1781 1803 11 11
1708778298.4168 1788 1813 7 10
1708778298.4245 1798 1823 10 10
1708778298.4339 1810 1834 12 11
1708778298.4413 1822 1844 12 10
1708778298.4492 1833 1856 11 12
1708778298.4575 1842 1867 9 11
1708778298.4646 1852 1876 10 9
1708778298.4732 1863 1886 11 10
1708778298.4815 1873 1898 10 12
1708778298.4888 1884 1910 11 12
1708778298.4967 1896 1920 12 10
1708778298.5049 1905 1928 9 8
1708778298.5133 1914 1938 9 10
1708778298.5208 1925 1951 11 13
1708778298.5290 1937 1962 12 11
1708778298.5373 1948 1971 11 9
1708778298.5451 1957 1980 9 9
1708778298.5532 1967 1995 10 15
1708778298.5605 1979 2007 12 12
1708778298.5694 1991 2017 12 10
1708778298.5774 2001 2025 10 8
1708778298.5854 2011 2035 10 10
1708778298.5933 2022 2048 11 13
1708778298.6014 2034 2059 12 11
1708778298.6086 2044 2069 10 10
1708778298.6165 2053 2078 9 9
1708778298.6254 2062 2088 9 10
1708778298.6327 2074 2099 12 11
1708778298.6406 2086 2111 12 12
1708778298.6499 2095 2122 9 11
1708778298.6571 2103 2132 8 10
1708778298.6649 2114 2142 11 10
1708778298.6729 2126 2151 12 9
1708778298.6812 2138 2161 12 10
1708778298.6887 2147 2173 9 12
1708778298.6970 2157 2183 10 10
1708778298.7046 2168 2192 11 9
1708778298.7124 2180 2202 12 10
1708778298.7214 2191 2213 11 11
1708778298.7296 2200 2224 9 11
1708778298.7374 2212 2234 12 10
1708778298.7456 2224 2244 12 10
1708778298.7528 2234 2256 10 12
1708778298.7606 2244 2267 10 11
1708778298.7689 2255 2276 11 9
1708778298.7773 2267 2284 12 8
1708778298.7853 2279 2296 12 12
1708778298.7936 2290 2308 11 12
1708778298.8009 2299 2318 9 10
1708778298.8087 2309 2327 10 9
1708778298.8169 2321 2335 12 8
1708778298.8247 2333 2346 12 11
1708778298.8325 2342 2358 9 12
1708778298.8418 2351 2368 9 10
1708778298.8490 2362 2377 11 9
1708778298.8568 2375 2388 13 11
1708778298.8649 2386 2399 11 11
1708778298.8729 2395 2409 9 10
1708778298.8807 2405 2418 10 9
1708778298.8889 2417 2429 12 11
1708778298.8972 2429 2440 12 11
1708778298.9048 2440 2450 11 10
1708778298.9139 2450 2460 10 10
1708778298.9208 2459 2471 9 11
1708778298.9286 2470 2482 11 11
1708778298.9368 2482 2492 12 10
1708778298.9452 2492 2501 10 9
1708778298.9530 2502 2513 10 12
1708778298.9613 2514 2525 12 12
1708778298.9689 2526 2536 12 11
1708778298.9774 2536 2545 10 9
1708778298.9856 2545 2554 9 9
1708778298.9928 2556 2564 11 10
1708778299.0004 2568 2577 12 13
1708778299.0097 2578 2587 10 10
1708778299.0170 2588 2596 10 9
1708778299.0244 2600 2607 12 11
1708778299.0337 2612 2618 12 11
1708778299.0412 2621 2627 9 9
1708778299.0484 2631 2637 10 10
1708778299.0569 2641 2646 10 9
1708778299.0652 2652 2655 11 9
1708778299.0727 2664 2666 12 11
1708778299.0809 2676 2679 12 13
1708778299.0892 2686 2689 10 10
1708778299.0971 2696 2698 10 9
1708778299.1054 2708 2708 12 10
1708778299.1126 2720 2719 12 11
1708778299.1214 2729 2729 9 10
1708778299.1297 2737 2738 8 9
1708778299.1368 2749 2749 12 11
1708778299.1447 2762 2761 13 12
1708778299.1530 2773 2772 11 11
1708778299.1613 2782 2781 9 9
1708778299.1693 2792 2791 10 10
1708778299.1772 2804 2802 12 11
1708778299.1844 2815 2813 11 11
1708778299.1934 2825 2823 10 10
1708778299.2016 2833 2832 8 9
1708778299.2089 2845 2843 12 11
1708778299.2167 2858 2855 13 12
1708778299.2255 2869 2866 11 11
1708778299.2327 2878 2876 9 10
1708778299.2405 2889 2886 11 10
1708778299.2498 2900 2896 11 10
1708778299.2570 2911 2907 11 11
1708778299.2648 2922 2918 11 11
1708778299.2737 2932 2928 10 10
1708778299.2813 2941 2938 9 10
1708778299.2893 2952 2949 11 11
1708778299.2977 2964 2960 12 11
1708778299.3053 2976 2971 12 11
1708778299.3134 2985 2981 9 10
1708778299.3213 2993 2990 8 9
1708778299.3288 3003 3001 10 11
1708778299.3367 3015 3012 12 11
1708778299.3451 3027 3022 12 10
1708778299.3528 3037 3032 10 10
1708778299.3607 3045 3043 8 11
1708778299.3697 3057 3054 12 11
1708778299.3770 3069 3064 12 10
1708778299.3851 3079 3074 10 10
1708778299.3938 3087 3085 8 11
1708778299.4012 3096 3096 9 11
1708778299.4088 3109 3107 13 11
1708778299.4176 3122 3117 13 10
1708778299.4249 3132 3126 10 9
1708778299.4332 3140 3137 8 11
1708778299.4416 3150 3148 10 11
1708778299.4501 3163 3159 13 11
1708778299.4571 3176 3170 13 11
1708778299.4656 3186 3182 10 12
1708778299.4726 3195 3192 9 10
1708778299.4810 3204 3201 9 9
1708778299.4896 3216 3211 12 10
1708778299.4972 3228 3223 12 12
1708778299.5051 3238 3235 10 12
1708778299.5129 3246 3245 8 10
1708778299.5212 3255 3255 9 10
1708778299.5285 3267 3266 12 11
1708778299.5379 3279 3276 12 10
1708778299.5451 3290 3286 11 10
1708778299.5531 3300 3298 10 12
1708778299.5613 3310 3309 10 11
1708778299.5687 3320 3318 10 9
1708778299.5771 3332 3329 12 11
1708778299.5851 3342 3340 10 11
1708778299.5925 3351 3351 9 11
1708778299.6013 3362 3361 11 10
1708778299.6095 3374 3370 12 9
1708778299.6168 3384 3381 10 11
1708778299.6254 3394 3392 10 11
1708778299.6334 3404 3402 10 10
1708778299.6408 3416 3412 12 10
1708778299.6487 3428 3424 12 12
1708778299.6569 3438 3435 10 11
1708778299.6653 3447 3444 9 9
1708778299.6727 3458 3455 11 11
1708778299.6819 3468 3466 10 11
1708778299.6895 3479 3476 11 10
1708778299.6973 3491 3488 12 12
1708778299.7056 3501 3498 10 10
1708778299.7128 3510 3508 9 10
1708778299.7211 3520 3519 10 11
1708778299.7294 3532 3530 12 11
1708778299.7367 3544 3540 12 10
1708778299.7444 3554 3551 10 11
1708778299.7537 3562 3561 8 10
1708778299.7610 3573 3572 11 11
1708778299.7687 3586 3584 13 12
1708778299.7777 3596 3594 10 10
1708778299.7849 3605 3603 9 9
1708778299.7927 3616 3614 11 11
1708778299.8010 3627 3625 11 11
1708778299.8091 3638 3635 11 10
1708778299.8169 3647 3645 9 10
1708778299.8258 3658 3656 11 11
1708778299.8331 3670 3667 12 11
1708778299.8410 3680 3677 10 10
1708778299.8492 3689 3686 9 9
1708778299.8574 3700 3697 11 11
1708778299.8654 3712 3708 12 11
1708778299.8732 3723 3719 11 11
1708778299.8805 3732 3730 9 11
1708778299.8885 3741 3740 9 10
1708778299.8978 3752 3749 11 9
1708778299.9046 3764 3760 12 11
1708778299.9134 3776 3773 12 13
1708778299.9212 3784 3783 8 10
1708778299.9294 3794 3793 10 10
1708778299.9372 3805 3804 11 11
1708778299.9453 3818 3815 13 11
1708778299.9525 3828 3826 10 11
1708778299.9614 3837 3836 9 10
1708778299.9696 3847 3845 10 9
1708778299.9766 3859 3857 12 12
1708778299.9854 3871 3869 12 12
1708778299.9935 3881 3879 10 10
1708778300.0007 3891 3889 10 10
1708778300.0086 3901 3899 10 10
1708778300.0169 3911 3910 10 11
1708778300.0249 3922 3920 11 10
1708778300.0327 3934 3931 12 11
1708778300.0420 3944 3942 10 11
1708778300.0493 3952 3952 8 10
1708778300.0573 3963 3962 11 10
1708778300.0655 3975 3973 12 11
1708778300.0724 3986 3984 11 11
1708778300.0813 3996 3994 10 10
1708778300.0896 4004 4003 8 9
1708778300.0969 4015 4014 11 11
1708778300.1047 4027 4025 12 11
1708778300.1130 4038 4033 11 8
1708778300.1209 4046 4043 8 10
1708778300.1285 4057 4055 11 12
1708778300.1378 4069 4067 12 12
1708778300.1454 4080 4078 11 11
1708778300.1533 4091 4088 11 10
1708778300.1615 4100 4097 9 9
1708778300.1696 4110 4108 10 11
1708778300.1771 4122 4120 12 12
1708778300.1853 4134 4131 12 11
1708778300.1925 4143 4140 9 9
1708778300.2004 4152 4150 9 10
1708778300.2098 4163 4161 11 11
1708778300.2169 4175 4172 12 11
1708778300.2248 4187 4183 12 11
1708778300.2335 4196 4194 9 11
1708778300.2407 4205 4204 9 10
1708778300.2485 4216 4215 11 11
1708778300.2578 4227 4224 11 9
1708778300.2649 4238 4234 11 10
1708778300.2735 4250 4245 12 11
1708778300.2816 4259 4257 9 12
1708778300.2888 4269 4267 10 10
1708778300.2966 4280 4277 11 10
1708778300.3058 4291 4286 11 9
1708778300.3131 4301 4297 10 11
1708778300.3205 4312 4309 11 12
1708778300.3298 4322 4319 10 10
1708778300.3371 4331 4328 9 9
1708778300.3448 4343 4339 12 11
1708778300.3529 4354 4350 11 11
1708778300.3612 4364 4360 10 10
1708778300.3691 4374 4371 10 11
1708778300.3769 4385 4382 11 11
1708778300.3853 4397 4392 12 10
1708778300.3932 4407 4402 10 10
1708778300.4012 4417 4413 10 11
1708778300.4093 4427 4425 10 12
1708778300.4171 4439 4434 12 9
1708778300.4251 4450 4443 11 9
1708778300.4334 4459 4454 9 11
1708778300.4409 4468 4467 9 13
1708778300.4492 4480 4477 12 10
1708778300.4565 4492 4486 12 9
1708778300.4654 4502 4497 10 11
1708778300.4732 4511 4509 9 12
1708778300.4805 4521 4521 10 12
1708778300.4885 4533 4529 12 8
1708778300.4970 4542 4538 9 9
1708778300.5053 4551 4549 9 11
1708778300.5133 4562 4561 11 12
1708778300.5209 4575 4573 13 12
1708778300.5302 4587 4584 12 11
1708778300.5372 4596 4593 9 9
1708778300.5455 4606 4604 10 11
1708778300.5528 4616 4615 10 11
1708778300.5607 4627 4626 11 11
1708778300.5697 4638 4635 11 9
1708778300.5767 4648 4645 10 10
1708778300.5847 4659 4657 11 12
1708778300.5931 4669 4668 10 11
1708778300.6014 4679 4677 10 9
1708778300.6094 4690 4688 11 11
1708778300.6177 4702 4700 12 12
1708778300.6245 4712 4710 10 10
1708778300.6326 4722 4720 10 10
1708778300.6409 4731 4729 9 9
1708778300.6493 4742 4739 11 10
1708778300.6572 4754 4751 12 12
1708778300.6653 4766 4764 12 13
1708778300.6734 4776 4773 10 9
1708778300.6812 4785 4782 9 9
1708778300.6894 4795 4792 10 10
1708778300.6967 4807 4804 12 12
1708778300.7045 4819 4818 12 14
1708778300.7136 4829 4828 10 10
1708778300.7208 4837 4836 8 8
1708778300.7286 4848 4846 11 10
1708778300.7380 4860 4858 12 12
1708778300.7453 4871 4869 11 11
1708778300.7532 4882 4880 11 11
1708778300.7613 4892 4890 10 10
1708778300.7687 4901 4899 9 9
1708778300.7772 4912 4910 11 11
1708778300.7855 4924 4922 12 12
1708778300.7928 4935 4932 11 10
1708778300.8007 4945 4941 10 9
1708778300.8090 4954 4951 9 10
1708778300.8173 4964 4963 10 12
1708778300.8247 4977 4974 13 11
1708778300.8329 4988 4983 11 9
1708778300.8412 4996 4992 8 9
1708778300.8488 5006 5004 10 12
1708778300.8570 5018 5016 12 12
1708778300.8654 5030 5026 12 10
1708778300.8731 5039 5035 9 9
1708778300.8814 5049 5045 10 10
1708778300.8895 5060 5058 11 13
1708778300.8974 5072 5069 12 11
1708778300.9055 5082 5078 10 9
1708778300.9128 5091 5088 9 10
1708778300.9214 5101 5100 10 12
1708778300.9296 5113 5112 12 12
1708778300.9367 5125 5122 12 10
1708778300.9445 5136 5132 11 10
1708778300.9537 5144 5142 8 10
1708778300.9610 5153 5154 9 12
1708778300.9689 5165 5166 12 12
1708778300.9778 5177 5177 12 11
1708778300.9850 5188 5186 11 9
1708778300.9927 5197 5196 9 10
1708778301.0010 5206 5208 9 12
1708778301.0093 5217 5220 11 12
1708778301.0171 5229 5229 12 9
1708778301.0259 5240 5239 11 10
1708778301.0326 5249 5250 9 11
1708778301.0415 5259 5262 10 12
1708778301.0498 5270 5272 11 10
1708778301.0569 5282 5281 12 9
1708778301.0647 5292 5292 10 11
1708778301.0735 5299 5304 7 12
1708778301.0807 5309 5313 10 9
1708778301.0886 5321 5323 12 10
1708778301.0979 5333 5334 12 11
1708778301.1052 5343 5346 10 12
1708778301.1130 5354 5357 11 11
1708778301.1217 5365 5366 11 9
1708778301.1291 5375 5375 10 9
1708778301.1369 5387 5387 12 12
1708778301.1451 5397 5399 10 12
1708778301.1535 5406 5409 9 10
1708778301.1612 5417 5417 11 8
1708778301.1695 5430 5428 13 11
1708778301.1764 5441 5440 11 12
1708778301.1853 5450 5450 9 10
1708778301.1936 5461 5459 11 9
1708778301.2007 5474 5469 13 10
1708778301.2098 5487 5480 13 11
1708778301.2169 5497 5488 10 8
1708778301.2249 5508 5497 11 9
1708778301.2327 5521 5506 13 9
1708778301.2409 5533 5515 12 9
1708778301.2491 5544 5523 11 8
1708778301.2569 5557 5532 13 9
1708778301.2650 5570 5541 13 9
1708778301.2729 5581 5548 11 7
1708778301.2808 5593 5556 12 8
1708778301.2925 5607 5565 14 9
1708778301.2971 5621 5574 14 9
1708778301.3045 5633 5583 12 9
1708778301.3139 5645 5591 12 8
1708778301.3208 5658 5599 13 8
1708778301.3289 5672 5608 14 9
1708778301.3372 5684 5616 12 8
1708778301.3453 5696 5623 12 7
1708778301.3533 5709 5632 13 9
1708778301.3615 5723 5641 14 9
1708778301.3687 5736 5650 13 9
1708778301.3771 5749 5657 13 7
1708778301.3852 5762 5663 13 6
1708778301.3935 5776 5672 14 9
1708778301.4013 5789 5682 13 10
1708778301.4091 5801 5691 12 9
1708778301.4174 5814 5698 13 7
1708778301.4247 5828 5705 14 7
1708778301.4338 5842 5714 14 9
1708778301.4411 5853 5725 11 11
1708778301.4489 5865 5735 12 10
1708778301.4570 5878 5742 13 7
1708778301.4653 5890 5749 12 7
1708778301.4727 5901 5758 11 9
1708778301.4819 5913 5769 12 11
1708778301.4894 5925 5780 12 11
1708778301.4973 5936 5788 11 8
1708778301.5056 5948 5796 12 8
1708778301.5128 5959 5806 11 10
1708778301.5213 5970 5816 11 10
1708778301.5295 5981 5825 11 9
1708778301.5368 5993 5836 12 11
1708778301.5447 6005 5847 12 11
1708778301.5530 6015 5857 10 10
1708778301.5612 6025 5866 10 9
1708778301.5690 6037 5877 12 11
1708778301.5779 6050 5888 13 11
1708778301.5853 6060 5897 10 9
1708778301.5926 6069 5907 9 10
1708778301.6009 6079 5919 10 12
1708778301.6101 6090 5929 11 10
1708778301.6169 6103 5938 13 9
1708778301.6257 6115 5949 12 11
1708778301.6329 6124 5960 9 11
1708778301.6407 6132 5970 8 10
1708778301.6499 6143 5980 11 10
1708778301.6569 6155 5991 12 11
1708778301.6646 6167 6003 12 12
1708778301.6736 6176 6014 9 11
1708778301.6807 6184 6024 8 10
1708778301.6895 6195 6035 11 11
1708778301.6978 6207 6045 12 10
1708778301.7050 6218 6056 11 11
1708778301.7128 6228 6067 10 11
1708778301.7216 6237 6077 9 10
1708778301.7288 6247 6087 10 10
1708778301.7366 6259 6098 12 11
1708778301.7457 6269 6108 10 10
1708778301.7528 6278 6117 9 9
1708778301.7606 6288 6129 10 12
1708778301.7697 6300 6140 12 11
1708778301.7771 6311 6150 11 10
1708778301.7849 6320 6160 9 10
1708778301.7930 6330 6172 10 12
1708778301.8013 6340 6183 10 11
1708778301.8091 6352 6192 12 9
1708778301.8173 6363 6203 11 11
1708778301.8252 6372 6215 9 12
1708778301.8328 6383 6226 11 11
1708778301.8410 6394 6235 11 9
1708778301.8492 6404 6245 10 10
1708778301.8570 6415 6257 11 12
1708778301.8652 6426 6269 11 12
1708778301.8730 6436 6280 10 11
1708778301.8806 6447 6290 11 10
1708778301.8898 6458 6300 11 10
1708778301.8973 6467 6310 9 10
1708778301.9047 6479 6323 12 13
1708778301.9129 6490 6333 11 10
1708778301.9209 6499 6341 9 8
1708778301.9295 6509 6352 10 11
1708778301.9376 6521 6365 12 13
1708778301.9449 6534 6376 13 11
1708778301.9526 6543 6385 9 9
1708778301.9619 6550 6394 7 9
1708778301.9703 6560 6405 10 11
1708778301.9767 6574 6417 14 12
1708778301.9850 6587 6430 13 13
1708778301.9933 6595 6438 8 8
1708778302.0009 6602 6447 7 9
1708778302.0090 6613 6458 11 11
1708778302.0172 6627 6470 14 12
1708778302.0245 6638 6480 11 10
1708778302.0338 6648 6490 10 10
