% Pose without folding and reset (log_20240219_140433.480/log_pose_abs.txt)
% 1 	Time (sec)
% 2,3 	Position x,y (m)
% 4 	heading (rad)
% 5 	Driven distance (m) - signed
% 6 	Turned angle (rad) - signed
1708347874.5437 0.000 0.000 0.0000 0.000 0.0000
1708347874.5512 0.000 0.000 0.0000 0.000 0.0000
1708347874.5585 0.000 0.000 0.0000 0.000 0.0000
1708347874.5671 0.000 0.000 0.0000 0.000 0.0000
1708347874.5751 0.000 0.000 0.0000 0.000 0.0000
1708347874.5832 0.000 0.000 0.0000 0.000 0.0000
1708347874.5907 0.000 0.000 0.0000 0.000 0.0000
1708347874.5994 0.000 0.000 0.0000 0.000 0.0000
1708347874.6062 0.000 0.000 0.0000 0.000 0.0000
1708347874.6148 0.000 0.000 0.0000 0.000 0.0000
1708347874.6231 0.000 0.000 0.0000 0.000 0.0000
1708347874.6303 0.000 0.000 0.0000 0.000 0.0000
1708347874.6392 0.000 0.000 0.0000 0.000 0.0000
1708347874.6464 0.000 0.000 0.0000 0.000 0.0000
1708347874.6551 0.000 0.000 0.0000 0.000 0.0000
1708347874.6627 0.000 0.000 0.0000 0.000 0.0000
1708347874.6709 0.001 0.000 0.0000 0.001 0.0000
1708347874.6782 0.003 0.000 0.0031 0.003 0.0031
1708347874.6863 0.004 0.000 0.0031 0.004 0.0031
1708347874.7038 0.005 0.000 0.0031 0.005 0.0031
1708347874.7111 0.006 0.000 0.0031 0.006 0.0031
1708347874.7188 0.007 0.000 0.0031 0.007 0.0031
1708347874.7266 0.008 0.000 0.0031 0.008 0.0031
1708347874.7348 0.010 0.000 0.0047 0.010 0.0047
1708347874.7477 0.012 0.000 0.0031 0.012 0.0031
1708347874.7510 0.014 0.000 0.0031 0.014 0.0031
1708347874.7594 0.015 0.000 0.0062 0.015 0.0062
1708347874.7717 0.016 0.000 0.0062 0.016 0.0062
1708347874.7759 0.018 0.000 0.0047 0.018 0.0047
1708347874.7917 0.021 0.000 0.0031 0.021 0.0031
1708347874.7940 0.023 0.000 0.0031 0.023 0.0031
1708347874.8055 0.024 0.000 0.0047 0.024 0.0047
1708347874.8124 0.025 0.000 0.0078 0.025 0.0078
1708347874.8146 0.025 0.000 0.0078 0.025 0.0078
1708347874.8228 0.028 0.000 0.0062 0.028 0.0062
1708347874.8307 0.031 0.000 0.0047 0.031 0.0047
1708347874.8385 0.033 0.000 0.0047 0.033 0.0047
1708347874.8471 0.035 0.000 0.0031 0.035 0.0031
1708347874.8554 0.037 0.000 -0.0000 0.037 -0.0000
1708347874.8638 0.039 0.000 -0.0016 0.039 -0.0016
1708347874.8718 0.042 0.000 -0.0000 0.042 -0.0000
1708347874.8789 0.044 0.000 -0.0016 0.044 -0.0016
1708347874.8889 0.046 0.000 -0.0031 0.046 -0.0031
1708347874.8945 0.048 0.000 -0.0031 0.048 -0.0031
1708347874.9059 0.051 0.000 -0.0047 0.051 -0.0047
1708347874.9114 0.052 0.000 -0.0031 0.052 -0.0031
1708347874.9199 0.054 0.000 -0.0031 0.054 -0.0031
1708347874.9273 0.057 0.000 -0.0016 0.057 -0.0016
1708347874.9347 0.060 0.000 -0.0031 0.060 -0.0031
1708347874.9428 0.063 0.000 -0.0062 0.063 -0.0062
1708347874.9513 0.064 0.000 -0.0047 0.064 -0.0047
1708347874.9587 0.066 0.000 -0.0031 0.066 -0.0031
1708347874.9668 0.070 0.000 -0.0016 0.070 -0.0016
1708347874.9748 0.072 0.000 -0.0047 0.072 -0.0047
1708347874.9829 0.074 0.000 -0.0078 0.074 -0.0078
1708347874.9908 0.076 0.000 -0.0047 0.076 -0.0047
1708347875.0006 0.079 0.000 -0.0016 0.079 -0.0016
1708347875.0070 0.082 0.000 -0.0031 0.082 -0.0031
1708347875.0154 0.084 -0.000 -0.0078 0.084 -0.0078
1708347875.0225 0.086 -0.000 -0.0093 0.086 -0.0093
1708347875.0314 0.088 -0.000 -0.0047 0.088 -0.0047
1708347875.0386 0.091 -0.000 -0.0000 0.091 -0.0000
1708347875.0467 0.094 -0.000 -0.0000 0.094 -0.0000
1708347875.0544 0.096 -0.000 -0.0031 0.096 -0.0031
1708347875.0631 0.098 -0.000 -0.0062 0.098 -0.0062
1708347875.0711 0.100 -0.000 -0.0031 0.100 -0.0031
1708347875.0785 0.103 -0.000 0.0016 0.103 0.0016
1708347875.0870 0.106 -0.000 0.0016 0.106 0.0016
1708347875.0950 0.108 -0.000 -0.0016 0.108 -0.0016
1708347875.1033 0.110 -0.000 -0.0047 0.110 -0.0047
1708347875.1106 0.112 -0.000 -0.0016 0.112 -0.0016
1708347875.1185 0.115 -0.000 0.0016 0.115 0.0016
1708347875.1269 0.117 -0.000 0.0016 0.117 0.0016
1708347875.1352 0.120 -0.000 -0.0016 0.120 -0.0016
1708347875.1431 0.122 -0.000 -0.0047 0.122 -0.0047
1708347875.1512 0.124 -0.000 -0.0031 0.124 -0.0031
1708347875.1593 0.127 -0.000 0.0031 0.127 0.0031
1708347875.1664 0.130 -0.000 0.0047 0.130 0.0047
1708347875.1750 0.132 -0.000 0.0016 0.132 0.0016
1708347875.1835 0.134 -0.000 -0.0031 0.134 -0.0031
1708347875.1908 0.136 -0.000 -0.0031 0.136 -0.0031
1708347875.1988 0.139 -0.000 -0.0000 0.139 -0.0000
1708347875.2069 0.141 -0.000 -0.0000 0.141 -0.0000
1708347875.2152 0.144 -0.000 -0.0000 0.144 -0.0000
1708347875.2225 0.146 -0.000 -0.0000 0.146 -0.0000
1708347875.2309 0.148 -0.000 -0.0000 0.148 -0.0000
1708347875.2386 0.151 -0.000 0.0016 0.151 0.0016
1708347875.2470 0.154 -0.000 -0.0000 0.154 -0.0000
1708347875.2550 0.155 -0.000 -0.0016 0.155 -0.0016
1708347875.2632 0.157 -0.000 -0.0016 0.157 -0.0016
1708347875.2714 0.160 -0.000 0.0016 0.160 0.0016
1708347875.2818 0.163 -0.000 0.0016 0.163 0.0016
1708347875.2870 0.166 -0.000 -0.0000 0.166 -0.0000
1708347875.2949 0.167 -0.000 -0.0000 0.167 -0.0000
1708347875.3043 0.169 -0.000 -0.0000 0.169 -0.0000
1708347875.3107 0.171 -0.000 0.0031 0.171 0.0031
1708347875.3192 0.174 -0.000 0.0031 0.174 0.0031
1708347875.3265 0.177 -0.000 0.0016 0.177 0.0016
1708347875.3346 0.179 -0.000 -0.0000 0.179 -0.0000
1708347875.3431 0.181 -0.000 0.0016 0.181 0.0016
1708347875.3512 0.184 -0.000 0.0016 0.184 0.0016
1708347875.3591 0.187 -0.000 0.0016 0.187 0.0016
1708347875.3666 0.189 -0.000 0.0031 0.189 0.0031
1708347875.3750 0.191 -0.000 0.0016 0.191 0.0016
1708347875.3832 0.193 -0.000 0.0016 0.193 0.0016
1708347875.3906 0.196 -0.000 -0.0016 0.196 -0.0016
1708347875.3988 0.199 -0.000 0.0016 0.199 0.0016
1708347875.4066 0.201 -0.000 0.0047 0.201 0.0047
1708347875.4149 0.203 -0.000 0.0031 0.203 0.0031
1708347875.4227 0.205 -0.000 -0.0000 0.205 -0.0000
1708347875.4310 0.208 -0.000 -0.0016 0.208 -0.0016
1708347875.4384 0.210 -0.000 0.0016 0.210 0.0016
1708347875.4468 0.213 -0.000 0.0047 0.213 0.0047
1708347875.4546 0.215 0.000 0.0031 0.215 0.0031
1708347875.4628 0.217 0.000 -0.0016 0.217 -0.0016
1708347875.4713 0.220 0.000 -0.0016 0.220 -0.0016
1708347875.4793 0.222 0.000 0.0031 0.222 0.0031
1708347875.4867 0.225 0.000 0.0047 0.225 0.0047
1708347875.4951 0.227 0.000 0.0047 0.227 0.0047
1708347875.5028 0.230 0.000 0.0016 0.230 0.0016
1708347875.5112 0.232 0.000 -0.0031 0.232 -0.0031
1708347875.5186 0.234 0.000 -0.0047 0.234 -0.0047
1708347875.5266 0.237 0.000 -0.0031 0.237 -0.0031
1708347875.5349 0.239 -0.000 -0.0078 0.239 -0.0078
1708347875.5433 0.241 -0.000 -0.0140 0.241 -0.0140
1708347875.5507 0.243 -0.000 -0.0202 0.243 -0.0202
1708347875.5591 0.246 -0.000 -0.0279 0.246 -0.0279
1708347875.5665 0.248 -0.000 -0.0357 0.248 -0.0357
1708347875.5744 0.251 -0.000 -0.0450 0.251 -0.0450
1708347875.5834 0.253 -0.000 -0.0559 0.253 -0.0559
1708347875.5907 0.255 -0.001 -0.0683 0.255 -0.0683
1708347875.5991 0.258 -0.001 -0.0823 0.258 -0.0823
1708347875.6074 0.260 -0.001 -0.0947 0.260 -0.0947
1708347875.6147 0.262 -0.001 -0.1102 0.262 -0.1102
1708347875.6227 0.265 -0.001 -0.1242 0.265 -0.1242
1708347875.6310 0.267 -0.002 -0.1366 0.267 -0.1366
1708347875.6394 0.269 -0.002 -0.1537 0.270 -0.1537
1708347875.6465 0.272 -0.002 -0.1707 0.272 -0.1707
1708347875.6545 0.274 -0.003 -0.1863 0.274 -0.1863
1708347875.6631 0.276 -0.003 -0.2018 0.276 -0.2018
1708347875.6710 0.279 -0.004 -0.2204 0.279 -0.2204
1708347875.6793 0.281 -0.004 -0.2375 0.282 -0.2375
1708347875.6864 0.283 -0.005 -0.2546 0.284 -0.2546
1708347875.6954 0.286 -0.006 -0.2716 0.286 -0.2716
1708347875.7034 0.288 -0.006 -0.2918 0.289 -0.2918
1708347875.7107 0.290 -0.007 -0.3120 0.291 -0.3120
1708347875.7187 0.293 -0.008 -0.3260 0.293 -0.3260
1708347875.7271 0.295 -0.009 -0.3368 0.296 -0.3368
1708347875.7350 0.297 -0.009 -0.3524 0.299 -0.3524
1708347875.7433 0.300 -0.010 -0.3725 0.301 -0.3725
1708347875.7512 0.302 -0.011 -0.3912 0.304 -0.3912
1708347875.7586 0.304 -0.012 -0.4051 0.306 -0.4051
1708347875.7665 0.306 -0.013 -0.4145 0.308 -0.4145
1708347875.7749 0.309 -0.014 -0.4253 0.311 -0.4253
1708347875.7825 0.311 -0.015 -0.4439 0.313 -0.4439
1708347875.7906 0.313 -0.016 -0.4564 0.316 -0.4564
1708347875.7996 0.315 -0.017 -0.4641 0.318 -0.4641
1708347875.8070 0.317 -0.018 -0.4734 0.320 -0.4734
1708347875.8151 0.320 -0.020 -0.4874 0.323 -0.4874
1708347875.8234 0.322 -0.021 -0.4967 0.326 -0.4967
1708347875.8308 0.324 -0.022 -0.4998 0.328 -0.4998
1708347875.8389 0.326 -0.023 -0.5029 0.330 -0.5029
1708347875.8473 0.328 -0.024 -0.5060 0.332 -0.5060
1708347875.8553 0.330 -0.025 -0.5091 0.335 -0.5091
1708347875.8633 0.332 -0.026 -0.5091 0.337 -0.5091
1708347875.8706 0.334 -0.027 -0.5076 0.339 -0.5076
1708347875.8790 0.336 -0.029 -0.5076 0.342 -0.5076
1708347875.8872 0.338 -0.030 -0.5060 0.344 -0.5060
1708347875.8945 0.340 -0.031 -0.5029 0.346 -0.5029
1708347875.9026 0.342 -0.032 -0.4998 0.349 -0.4998
1708347875.9104 0.344 -0.033 -0.4952 0.351 -0.4952
1708347875.9191 0.346 -0.034 -0.4921 0.353 -0.4921
1708347875.9265 0.349 -0.035 -0.4905 0.356 -0.4905
1708347875.9346 0.351 -0.037 -0.4890 0.359 -0.4890
1708347875.9431 0.352 -0.037 -0.4843 0.360 -0.4843
1708347875.9514 0.354 -0.038 -0.4781 0.362 -0.4781
1708347875.9593 0.357 -0.040 -0.4750 0.365 -0.4750
1708347875.9666 0.359 -0.041 -0.4750 0.368 -0.4750
1708347875.9753 0.361 -0.042 -0.4734 0.370 -0.4734
1708347875.9833 0.362 -0.043 -0.4688 0.372 -0.4688
1708347875.9907 0.365 -0.044 -0.4657 0.374 -0.4657
1708347875.9996 0.367 -0.045 -0.4626 0.377 -0.4626
1708347876.0065 0.370 -0.046 -0.4595 0.379 -0.4595
1708347876.0149 0.372 -0.047 -0.4595 0.382 -0.4595
1708347876.0234 0.374 -0.048 -0.4595 0.384 -0.4595
1708347876.0304 0.376 -0.049 -0.4579 0.386 -0.4579
1708347876.0385 0.378 -0.050 -0.4564 0.389 -0.4564
1708347876.0470 0.380 -0.051 -0.4564 0.392 -0.4564
1708347876.0546 0.382 -0.052 -0.4579 0.394 -0.4579
1708347876.0630 0.384 -0.053 -0.4564 0.396 -0.4564
1708347876.0705 0.387 -0.055 -0.4533 0.399 -0.4533
1708347876.0788 0.389 -0.056 -0.4533 0.402 -0.4533
1708347876.0873 0.391 -0.057 -0.4533 0.404 -0.4533
1708347876.0948 0.393 -0.058 -0.4548 0.405 -0.4548
1708347876.1026 0.395 -0.059 -0.4533 0.408 -0.4533
1708347876.1109 0.398 -0.060 -0.4517 0.411 -0.4517
1708347876.1193 0.400 -0.061 -0.4517 0.414 -0.4517
1708347876.1272 0.402 -0.062 -0.4502 0.416 -0.4502
1708347876.1345 0.404 -0.063 -0.4533 0.418 -0.4533
1708347876.1428 0.406 -0.064 -0.4548 0.420 -0.4548
1708347876.1506 0.408 -0.065 -0.4533 0.423 -0.4533
1708347876.1589 0.411 -0.066 -0.4502 0.425 -0.4502
1708347876.1673 0.413 -0.067 -0.4470 0.427 -0.4470
1708347876.1752 0.415 -0.068 -0.4502 0.430 -0.4502
1708347876.1834 0.417 -0.069 -0.4533 0.432 -0.4533
1708347876.1909 0.419 -0.070 -0.4470 0.435 -0.4470
1708347876.1996 0.422 -0.072 -0.4455 0.437 -0.4455
1708347876.2070 0.423 -0.072 -0.4486 0.439 -0.4486
1708347876.2154 0.425 -0.073 -0.4533 0.442 -0.4533
1708347876.2233 0.428 -0.075 -0.4533 0.444 -0.4533
1708347876.2307 0.430 -0.076 -0.4486 0.447 -0.4486
1708347876.2392 0.432 -0.077 -0.4486 0.449 -0.4486
1708347876.2473 0.434 -0.078 -0.4517 0.452 -0.4517
1708347876.2544 0.436 -0.079 -0.4579 0.454 -0.4579
1708347876.2629 0.439 -0.080 -0.4579 0.456 -0.4579
1708347876.2708 0.441 -0.081 -0.4502 0.459 -0.4502
1708347876.2792 0.443 -0.082 -0.4486 0.461 -0.4486
1708347876.2865 0.445 -0.083 -0.4533 0.464 -0.4533
1708347876.2946 0.447 -0.084 -0.4579 0.466 -0.4579
1708347876.3026 0.449 -0.085 -0.4548 0.468 -0.4548
1708347876.3110 0.451 -0.086 -0.4517 0.471 -0.4517
1708347876.3190 0.454 -0.087 -0.4517 0.473 -0.4517
1708347876.3266 0.456 -0.088 -0.4564 0.476 -0.4564
1708347876.3350 0.458 -0.089 -0.4579 0.478 -0.4579
1708347876.3430 0.460 -0.090 -0.4548 0.480 -0.4548
1708347876.3511 0.462 -0.091 -0.4502 0.483 -0.4502
1708347876.3593 0.465 -0.093 -0.4533 0.485 -0.4533
1708347876.3673 0.467 -0.094 -0.4595 0.488 -0.4595
1708347876.3748 0.469 -0.095 -0.4595 0.490 -0.4595
1708347876.3832 0.471 -0.096 -0.4533 0.493 -0.4533
1708347876.3905 0.473 -0.097 -0.4502 0.495 -0.4502
1708347876.3995 0.475 -0.098 -0.4517 0.497 -0.4517
1708347876.4074 0.477 -0.099 -0.4564 0.499 -0.4564
1708347876.4150 0.480 -0.100 -0.4579 0.502 -0.4579
1708347876.4228 0.482 -0.101 -0.4548 0.505 -0.4548
1708347876.4306 0.484 -0.102 -0.4502 0.507 -0.4502
1708347876.4391 0.486 -0.103 -0.4502 0.509 -0.4502
1708347876.4465 0.488 -0.104 -0.4548 0.511 -0.4548
1708347876.4553 0.490 -0.105 -0.4579 0.514 -0.4579
1708347876.4628 0.493 -0.106 -0.4564 0.516 -0.4564
1708347876.4716 0.495 -0.107 -0.4502 0.519 -0.4502
1708347876.4792 0.497 -0.108 -0.4470 0.521 -0.4470
1708347876.4864 0.499 -0.109 -0.4486 0.523 -0.4486
1708347876.4952 0.501 -0.110 -0.4533 0.525 -0.4533
1708347876.5028 0.503 -0.111 -0.4548 0.528 -0.4548
1708347876.5108 0.505 -0.112 -0.4502 0.531 -0.4502
1708347876.5191 0.507 -0.113 -0.4486 0.533 -0.4486
1708347876.5264 0.509 -0.114 -0.4502 0.535 -0.4502
1708347876.5344 0.512 -0.115 -0.4533 0.538 -0.4533
1708347876.5426 0.514 -0.116 -0.4517 0.540 -0.4517
1708347876.5508 0.516 -0.117 -0.4470 0.542 -0.4470
1708347876.5588 0.518 -0.118 -0.4502 0.545 -0.4502
1708347876.5673 0.520 -0.120 -0.4548 0.547 -0.4548
1708347876.5746 0.522 -0.121 -0.4533 0.550 -0.4533
1708347876.5825 0.524 -0.122 -0.4502 0.552 -0.4502
1708347876.5910 0.527 -0.123 -0.4486 0.554 -0.4486
1708347876.5992 0.529 -0.124 -0.4517 0.557 -0.4517
1708347876.6073 0.531 -0.125 -0.4564 0.559 -0.4564
1708347876.6146 0.533 -0.126 -0.4548 0.561 -0.4548
1708347876.6232 0.535 -0.127 -0.4517 0.564 -0.4517
1708347876.6313 0.537 -0.128 -0.4517 0.566 -0.4517
1708347876.6389 0.540 -0.129 -0.4548 0.569 -0.4548
1708347876.6470 0.542 -0.130 -0.4579 0.571 -0.4579
1708347876.6548 0.544 -0.131 -0.4533 0.574 -0.4533
1708347876.6634 0.546 -0.132 -0.4502 0.576 -0.4502
1708347876.6711 0.548 -0.133 -0.4502 0.578 -0.4502
1708347876.6791 0.550 -0.134 -0.4548 0.581 -0.4548
1708347876.6866 0.553 -0.135 -0.4564 0.583 -0.4564
1708347876.6953 0.555 -0.136 -0.4533 0.585 -0.4533
1708347876.7032 0.556 -0.137 -0.4470 0.587 -0.4470
1708347876.7107 0.558 -0.138 -0.4439 0.590 -0.4439
1708347876.7195 0.561 -0.139 -0.4486 0.592 -0.4486
1708347876.7309 0.563 -0.140 -0.4517 0.595 -0.4517
1708347876.7390 0.565 -0.141 -0.4533 0.597 -0.4533
1708347876.7426 0.568 -0.143 -0.4486 0.600 -0.4486
1708347876.7506 0.570 -0.144 -0.4470 0.603 -0.4470
1708347876.7587 0.571 -0.144 -0.4517 0.603 -0.4517
1708347876.7666 0.571 -0.144 -0.4548 0.603 -0.4548
1708347876.7754 0.572 -0.145 -0.4579 0.605 -0.4579
1708347876.7831 0.575 -0.146 -0.4579 0.608 -0.4579
1708347876.7911 0.579 -0.148 -0.4564 0.613 -0.4564
1708347876.8000 0.581 -0.149 -0.4564 0.615 -0.4564
1708347876.8073 0.582 -0.150 -0.4548 0.616 -0.4548
1708347876.8159 0.584 -0.151 -0.4533 0.618 -0.4533
1708347876.8228 0.587 -0.152 -0.4517 0.621 -0.4517
1708347876.8309 0.590 -0.153 -0.4533 0.625 -0.4533
1708347876.8385 0.592 -0.155 -0.4548 0.627 -0.4548
1708347876.8466 0.594 -0.155 -0.4548 0.629 -0.4548
1708347876.8545 0.595 -0.156 -0.4533 0.630 -0.4533
1708347876.8629 0.597 -0.157 -0.4502 0.633 -0.4502
1708347876.8708 0.601 -0.159 -0.4517 0.637 -0.4517
1708347876.8792 0.604 -0.160 -0.4533 0.640 -0.4533
1708347876.8865 0.605 -0.161 -0.4533 0.642 -0.4533
1708347876.8945 0.607 -0.162 -0.4533 0.643 -0.4533
1708347876.9032 0.609 -0.163 -0.4502 0.646 -0.4502
1708347876.9105 0.612 -0.164 -0.4517 0.649 -0.4517
1708347876.9185 0.615 -0.165 -0.4533 0.652 -0.4533
1708347876.9270 0.616 -0.166 -0.4533 0.654 -0.4533
1708347876.9346 0.618 -0.167 -0.4517 0.656 -0.4517
1708347876.9433 0.621 -0.168 -0.4517 0.659 -0.4517
1708347876.9507 0.624 -0.170 -0.4502 0.662 -0.4502
1708347876.9588 0.626 -0.171 -0.4517 0.664 -0.4517
1708347876.9671 0.627 -0.171 -0.4517 0.666 -0.4517
1708347876.9752 0.629 -0.172 -0.4502 0.668 -0.4502
1708347876.9828 0.632 -0.174 -0.4502 0.671 -0.4502
1708347876.9913 0.634 -0.175 -0.4517 0.674 -0.4517
1708347876.9995 0.636 -0.176 -0.4533 0.676 -0.4533
1708347877.0071 0.637 -0.177 -0.4533 0.677 -0.4533
1708347877.0144 0.640 -0.178 -0.4517 0.680 -0.4517
1708347877.0232 0.642 -0.179 -0.4533 0.683 -0.4533
1708347877.0308 0.644 -0.180 -0.4564 0.685 -0.4564
1708347877.0390 0.646 -0.181 -0.4548 0.687 -0.4548
1708347877.0466 0.648 -0.182 -0.4502 0.690 -0.4502
1708347877.0552 0.650 -0.183 -0.4502 0.692 -0.4502
1708347877.0628 0.652 -0.184 -0.4564 0.694 -0.4564
1708347877.0707 0.655 -0.185 -0.4564 0.697 -0.4564
1708347877.0794 0.657 -0.186 -0.4517 0.699 -0.4517
1708347877.0869 0.659 -0.187 -0.4486 0.701 -0.4486
1708347877.0945 0.661 -0.188 -0.4517 0.703 -0.4517
1708347877.1030 0.663 -0.189 -0.4564 0.706 -0.4564
1708347877.1115 0.666 -0.190 -0.4564 0.709 -0.4564
1708347877.1194 0.668 -0.191 -0.4517 0.711 -0.4517
1708347877.1270 0.670 -0.192 -0.4486 0.713 -0.4486
1708347877.1354 0.672 -0.193 -0.4533 0.716 -0.4533
1708347877.1471 0.674 -0.194 -0.4595 0.718 -0.4595
1708347877.1511 0.676 -0.195 -0.4579 0.721 -0.4579
1708347877.1586 0.678 -0.197 -0.4533 0.723 -0.4533
1708347877.1666 0.680 -0.197 -0.4533 0.725 -0.4533
1708347877.1754 0.682 -0.198 -0.4548 0.727 -0.4548
1708347877.1833 0.684 -0.199 -0.4548 0.730 -0.4548
1708347877.1906 0.687 -0.201 -0.4548 0.733 -0.4548
1708347877.1996 0.689 -0.202 -0.4548 0.735 -0.4548
1708347877.2066 0.691 -0.202 -0.4533 0.737 -0.4533
1708347877.2148 0.693 -0.203 -0.4533 0.739 -0.4533
1708347877.2234 0.695 -0.205 -0.4533 0.742 -0.4533
1708347877.2314 0.698 -0.206 -0.4548 0.744 -0.4548
1708347877.2386 0.700 -0.207 -0.4548 0.747 -0.4548
1708347877.2470 0.702 -0.208 -0.4502 0.749 -0.4502
1708347877.2553 0.703 -0.209 -0.4517 0.750 -0.4517
1708347877.2624 0.705 -0.209 -0.4564 0.753 -0.4564
1708347877.2710 0.708 -0.211 -0.4595 0.756 -0.4595
1708347877.2791 0.710 -0.212 -0.4564 0.759 -0.4564
1708347877.2874 0.712 -0.213 -0.4533 0.760 -0.4533
1708347877.2946 0.713 -0.214 -0.4533 0.762 -0.4533
1708347877.3030 0.716 -0.215 -0.4548 0.764 -0.4548
1708347877.3112 0.718 -0.216 -0.4548 0.767 -0.4548
1708347877.3194 0.721 -0.217 -0.4548 0.770 -0.4548
1708347877.3272 0.722 -0.218 -0.4548 0.772 -0.4548
1708347877.3345 0.724 -0.219 -0.4548 0.774 -0.4548
1708347877.3429 0.726 -0.220 -0.4533 0.776 -0.4533
1708347877.3510 0.729 -0.221 -0.4533 0.779 -0.4533
1708347877.3593 0.731 -0.222 -0.4533 0.782 -0.4533
1708347877.3665 0.733 -0.223 -0.4548 0.784 -0.4548
1708347877.3753 0.735 -0.224 -0.4548 0.786 -0.4548
1708347877.3828 0.737 -0.225 -0.4533 0.788 -0.4533
1708347877.3913 0.740 -0.226 -0.4533 0.791 -0.4533
1708347877.3995 0.742 -0.228 -0.4548 0.794 -0.4548
1708347877.4067 0.744 -0.228 -0.4564 0.796 -0.4564
1708347877.4150 0.745 -0.229 -0.4548 0.798 -0.4548
1708347877.4235 0.748 -0.230 -0.4517 0.800 -0.4517
1708347877.4307 0.751 -0.232 -0.4502 0.803 -0.4502
1708347877.4389 0.753 -0.233 -0.4533 0.806 -0.4533
1708347877.4471 0.754 -0.234 -0.4548 0.807 -0.4548
1708347877.4548 0.756 -0.234 -0.4533 0.809 -0.4533
1708347877.4630 0.759 -0.236 -0.4502 0.812 -0.4502
1708347877.4708 0.762 -0.237 -0.4502 0.816 -0.4502
1708347877.4790 0.763 -0.238 -0.4533 0.817 -0.4533
1708347877.4874 0.765 -0.239 -0.4548 0.819 -0.4548
1708347877.4954 0.767 -0.240 -0.4533 0.822 -0.4533
1708347877.5025 0.770 -0.241 -0.4502 0.825 -0.4502
1708347877.5118 0.772 -0.242 -0.4517 0.827 -0.4517
1708347877.5192 0.774 -0.243 -0.4533 0.829 -0.4533
1708347877.5278 0.776 -0.244 -0.4533 0.831 -0.4533
1708347877.5352 0.778 -0.245 -0.4533 0.834 -0.4533
1708347877.5426 0.781 -0.246 -0.4517 0.837 -0.4517
1708347877.5506 0.783 -0.247 -0.4533 0.839 -0.4533
1708347877.5593 0.785 -0.248 -0.4533 0.841 -0.4533
1708347877.5696 0.786 -0.249 -0.4502 0.843 -0.4502
1708347877.5751 0.789 -0.250 -0.4502 0.846 -0.4502
1708347877.5827 0.792 -0.252 -0.4517 0.849 -0.4517
1708347877.5905 0.793 -0.252 -0.4517 0.851 -0.4517
1708347877.5999 0.794 -0.253 -0.4533 0.852 -0.4533
1708347877.6073 0.797 -0.254 -0.4517 0.855 -0.4517
1708347877.6149 0.800 -0.256 -0.4533 0.858 -0.4533
1708347877.6232 0.802 -0.257 -0.4517 0.861 -0.4517
1708347877.6313 0.804 -0.258 -0.4517 0.862 -0.4517
1708347877.6391 0.805 -0.258 -0.4517 0.864 -0.4517
1708347877.6478 0.808 -0.259 -0.4517 0.867 -0.4517
1708347877.6553 0.810 -0.261 -0.4517 0.870 -0.4517
1708347877.6637 0.813 -0.262 -0.4533 0.872 -0.4533
1708347877.6733 0.814 -0.263 -0.4533 0.874 -0.4533
1708347877.6789 0.815 -0.263 -0.4517 0.875 -0.4517
