% Pose without folding and reset (log_20240224_142436.974/log_pose_abs.txt)
% 1 	Time (sec)
% 2,3 	Position x,y (m)
% 4 	heading (rad)
% 5 	Driven distance (m) - signed
% 6 	Turned angle (rad) - signed
1708781077.8378 0.000 0.000 0.0000 0.000 0.0000
1708781077.8475 0.000 0.000 0.0000 0.000 0.0000
1708781077.8548 0.000 0.000 0.0000 0.000 0.0000
1708781077.8632 0.000 0.000 0.0000 0.000 0.0000
1708781077.8708 0.000 0.000 0.0000 0.000 0.0000
1708781077.8772 0.000 0.000 0.0000 0.000 0.0000
1708781077.8864 0.000 0.000 0.0000 0.000 0.0000
1708781077.8938 0.000 0.000 0.0000 0.000 0.0000
1708781077.9012 0.000 0.000 0.0000 0.000 0.0000
1708781077.9100 0.000 0.000 0.0000 0.000 0.0000
1708781077.9243 0.000 0.000 0.0000 0.000 0.0000
1708781077.9263 0.000 0.000 0.0000 0.000 0.0000
1708781077.9337 0.000 0.000 0.0000 0.000 0.0000
1708781077.9415 0.000 0.000 0.0000 0.000 0.0000
1708781077.9492 0.000 0.000 0.0000 0.000 0.0000
1708781077.9583 0.000 0.000 0.0000 0.000 0.0000
1708781077.9661 0.000 0.000 0.0000 0.000 0.0000
1708781077.9736 0.000 0.000 0.0000 0.000 0.0000
1708781077.9819 0.000 0.000 0.0000 0.000 0.0000
1708781077.9894 0.000 0.000 0.0000 0.000 0.0000
1708781077.9977 0.000 0.000 0.0000 0.000 0.0000
1708781078.0065 0.000 0.000 0.0016 0.000 0.0016
1708781078.0140 0.003 0.000 0.0000 0.003 0.0000
1708781078.0217 0.009 0.000 0.0016 0.009 0.0016
1708781078.0333 0.015 0.000 0.0016 0.015 0.0016
1708781078.0376 0.019 0.000 0.0031 0.019 0.0031
1708781078.0450 0.024 0.000 0.0016 0.024 0.0016
1708781078.0538 0.027 0.000 0.0016 0.027 0.0016
1708781078.0614 0.031 0.000 0.0031 0.031 0.0031
1708781078.0694 0.036 0.000 0.0016 0.036 0.0016
1708781078.0784 0.043 0.000 0.0031 0.043 0.0031
1708781078.0852 0.049 0.000 0.0047 0.049 0.0047
1708781078.0936 0.055 0.000 0.0047 0.055 0.0047
1708781078.1023 0.059 0.000 0.0031 0.059 0.0031
1708781078.1092 0.064 0.000 0.0016 0.064 0.0016
1708781078.1176 0.070 0.000 0.0016 0.070 0.0016
1708781078.1257 0.076 0.000 0.0016 0.076 0.0016
1708781078.1338 0.082 0.000 0.0031 0.082 0.0031
1708781078.1420 0.088 0.000 -0.0016 0.088 -0.0016
1708781078.1495 0.094 0.000 -0.0047 0.094 -0.0047
1708781078.1572 0.101 0.000 -0.0047 0.101 -0.0047
1708781078.1654 0.107 0.000 -0.0016 0.107 -0.0016
1708781078.1734 0.112 0.000 -0.0000 0.112 -0.0000
1708781078.1811 0.118 0.000 -0.0016 0.118 -0.0016
1708781078.1895 0.125 0.000 -0.0000 0.125 -0.0000
1708781078.1980 0.131 0.000 -0.0000 0.131 -0.0000
1708781078.2056 0.137 0.000 -0.0031 0.137 -0.0031
1708781078.2133 0.144 0.000 -0.0047 0.144 -0.0047
1708781078.2223 0.150 0.000 -0.0031 0.150 -0.0031
1708781078.2299 0.156 0.000 -0.0016 0.156 -0.0016
1708781078.2377 0.162 0.000 -0.0000 0.162 -0.0000
1708781078.2463 0.169 0.000 -0.0016 0.169 -0.0016
1708781078.2539 0.175 0.000 -0.0000 0.175 -0.0000
1708781078.2611 0.182 0.000 0.0016 0.182 0.0016
1708781078.2705 0.188 0.000 0.0047 0.188 0.0047
1708781078.2772 0.194 0.000 0.0047 0.194 0.0047
1708781078.2851 0.200 0.000 0.0031 0.200 0.0031
1708781078.2943 0.206 0.000 0.0047 0.206 0.0047
1708781078.3018 0.212 0.000 0.0031 0.212 0.0031
1708781078.3097 0.219 0.000 0.0016 0.219 0.0016
1708781078.3175 0.226 0.000 -0.0000 0.226 -0.0000
1708781078.3260 0.231 0.000 0.0016 0.231 0.0016
1708781078.3338 0.238 0.000 0.0031 0.238 0.0031
1708781078.3418 0.244 0.000 0.0016 0.244 0.0016
1708781078.3490 0.251 0.000 -0.0016 0.251 -0.0016
1708781078.3578 0.257 0.000 -0.0000 0.257 -0.0000
1708781078.3657 0.263 0.000 -0.0000 0.263 -0.0000
1708781078.3733 0.270 0.000 0.0016 0.270 0.0016
1708781078.3813 0.276 0.000 -0.0000 0.276 -0.0000
1708781078.3903 0.283 0.000 0.0031 0.283 0.0031
1708781078.3974 0.289 0.000 0.0031 0.289 0.0031
1708781078.4053 0.295 0.000 0.0016 0.295 0.0016
1708781078.4142 0.301 0.000 -0.0000 0.301 -0.0000
1708781078.4220 0.307 0.000 -0.0000 0.307 -0.0000
1708781078.4298 0.314 0.000 0.0016 0.314 0.0016
1708781078.4377 0.321 0.000 0.0031 0.321 0.0031
1708781078.4458 0.327 0.000 -0.0000 0.327 -0.0000
1708781078.4537 0.333 0.000 -0.0016 0.333 -0.0016
1708781078.4615 0.339 0.000 -0.0000 0.339 -0.0000
1708781078.4692 0.346 0.000 0.0016 0.346 0.0016
1708781078.4770 0.353 0.000 -0.0016 0.353 -0.0016
1708781078.4859 0.359 0.000 -0.0031 0.359 -0.0031
1708781078.4933 0.365 0.000 -0.0000 0.365 -0.0000
1708781078.5018 0.372 0.000 -0.0016 0.372 -0.0016
1708781078.5097 0.379 0.000 -0.0000 0.379 -0.0000
1708781078.5174 0.385 0.000 -0.0000 0.385 -0.0000
1708781078.5254 0.391 0.000 -0.0016 0.391 -0.0016
1708781078.5341 0.397 0.000 -0.0031 0.397 -0.0031
1708781078.5418 0.403 0.000 -0.0047 0.403 -0.0047
1708781078.5493 0.411 0.000 -0.0047 0.411 -0.0047
1708781078.5582 0.417 0.000 -0.0016 0.417 -0.0016
1708781078.5657 0.423 0.000 -0.0000 0.423 -0.0000
1708781078.5736 0.429 0.000 -0.0000 0.429 -0.0000
1708781078.5824 0.436 0.000 -0.0047 0.436 -0.0047
1708781078.5900 0.442 0.000 -0.0047 0.442 -0.0047
1708781078.5973 0.448 0.000 -0.0031 0.448 -0.0031
1708781078.6063 0.455 0.000 -0.0000 0.455 -0.0000
1708781078.6139 0.461 0.000 -0.0016 0.461 -0.0016
1708781078.6216 0.468 0.000 -0.0047 0.468 -0.0047
1708781078.6298 0.474 0.000 -0.0047 0.474 -0.0047
1708781078.6380 0.480 -0.000 -0.0016 0.480 -0.0016
1708781078.6453 0.487 -0.000 -0.0000 0.487 -0.0000
1708781078.6538 0.493 -0.000 0.0016 0.493 0.0016
1708781078.6612 0.500 0.000 0.0016 0.500 0.0016
1708781078.6702 0.505 0.000 -0.0000 0.505 -0.0000
1708781078.6777 0.511 0.000 -0.0016 0.511 -0.0016
1708781078.6857 0.518 -0.000 -0.0016 0.518 -0.0016
1708781078.6930 0.525 -0.000 -0.0031 0.525 -0.0031
1708781078.7017 0.531 -0.000 -0.0016 0.531 -0.0016
1708781078.7099 0.537 -0.000 0.0016 0.537 0.0016
1708781078.7171 0.543 -0.000 0.0031 0.543 0.0031
1708781078.7257 0.550 -0.000 0.0016 0.550 0.0016
1708781078.7339 0.556 0.000 0.0016 0.556 0.0016
1708781078.7412 0.563 0.000 0.0016 0.563 0.0016
1708781078.7497 0.570 0.000 0.0016 0.570 0.0016
1708781078.7571 0.576 0.000 -0.0000 0.576 -0.0000
1708781078.7716 0.582 0.000 -0.0016 0.582 -0.0016
1708781078.7740 0.588 0.000 -0.0000 0.588 -0.0000
1708781078.7815 0.595 0.000 0.0016 0.595 0.0016
1708781078.7934 0.598 0.000 -0.0016 0.598 -0.0016
1708781078.7976 0.600 0.000 0.0016 0.600 0.0016
1708781078.8088 0.603 0.000 0.0016 0.603 0.0016
1708781078.8130 0.608 0.000 0.0031 0.608 0.0031
1708781078.8236 0.615 0.000 0.0016 0.615 0.0016
1708781078.8296 0.620 0.000 -0.0000 0.620 -0.0000
1708781078.8373 0.626 0.000 -0.0016 0.626 -0.0016
1708781078.8492 0.632 0.000 -0.0047 0.632 -0.0047
1708781078.8562 0.640 0.000 -0.0031 0.640 -0.0031
1708781078.8682 0.648 -0.000 -0.0031 0.648 -0.0031
1708781078.8704 0.656 -0.000 -0.0047 0.656 -0.0047
1708781078.8836 0.662 -0.000 -0.0031 0.662 -0.0031
1708781078.8858 0.668 -0.000 -0.0031 0.668 -0.0031
1708781078.8962 0.672 -0.000 -0.0093 0.672 -0.0093
1708781078.9040 0.673 -0.000 -0.0140 0.673 -0.0140
1708781078.9116 0.675 -0.000 -0.0171 0.675 -0.0171
1708781078.9182 0.680 -0.000 -0.0186 0.680 -0.0186
1708781078.9254 0.686 -0.000 -0.0202 0.686 -0.0202
1708781078.9373 0.693 -0.000 -0.0124 0.693 -0.0124
1708781078.9416 0.698 -0.001 -0.0062 0.698 -0.0062
1708781078.9491 0.704 -0.001 -0.0000 0.704 -0.0000
1708781078.9579 0.707 -0.001 -0.0000 0.707 -0.0000
1708781078.9692 0.711 -0.001 -0.0016 0.711 -0.0016
1708781078.9760 0.717 -0.001 -0.0047 0.717 -0.0047
1708781078.9813 0.725 -0.001 -0.0062 0.725 -0.0062
1708781078.9901 0.731 -0.001 -0.0062 0.731 -0.0062
1708781078.9972 0.735 -0.001 -0.0016 0.735 -0.0016
1708781079.0049 0.740 -0.001 -0.0000 0.740 -0.0000
1708781079.0139 0.746 -0.001 -0.0000 0.746 -0.0000
1708781079.0216 0.753 -0.001 -0.0000 0.753 -0.0000
1708781079.0292 0.759 -0.001 -0.0016 0.759 -0.0016
1708781079.0381 0.765 -0.001 -0.0000 0.765 -0.0000
1708781079.0453 0.771 -0.001 0.0016 0.771 0.0016
1708781079.0532 0.777 -0.001 0.0016 0.777 0.0016
1708781079.0621 0.783 -0.001 0.0016 0.783 0.0016
1708781079.0698 0.789 -0.001 0.0016 0.789 0.0016
1708781079.0774 0.796 -0.001 -0.0016 0.796 -0.0016
1708781079.0862 0.802 -0.001 -0.0000 0.802 -0.0000
1708781079.0938 0.808 -0.001 0.0016 0.808 0.0016
1708781079.1011 0.814 -0.001 0.0016 0.814 0.0016
1708781079.1100 0.821 -0.001 0.0016 0.821 0.0016
1708781079.1173 0.827 -0.001 0.0016 0.827 0.0016
1708781079.1251 0.833 -0.001 -0.0000 0.833 -0.0000
1708781079.1342 0.839 -0.001 -0.0000 0.839 -0.0000
1708781079.1418 0.845 -0.001 0.0016 0.845 0.0016
1708781079.1491 0.852 -0.001 0.0047 0.852 0.0047
1708781079.1580 0.859 -0.001 0.0016 0.859 0.0016
1708781079.1653 0.864 -0.001 0.0016 0.864 0.0016
1708781079.1730 0.871 -0.001 -0.0000 0.871 -0.0000
1708781079.1819 0.877 -0.001 -0.0000 0.877 -0.0000
1708781079.1895 0.883 -0.001 -0.0000 0.883 -0.0000
1708781079.1979 0.890 -0.001 0.0016 0.890 0.0016
1708781079.2057 0.896 -0.001 0.0047 0.896 0.0047
1708781079.2130 0.903 -0.000 0.0031 0.903 0.0031
1708781079.2219 0.909 -0.000 -0.0016 0.909 -0.0016
1708781079.2297 0.915 -0.001 -0.0016 0.915 -0.0016
1708781079.2374 0.922 -0.001 -0.0016 0.922 -0.0016
1708781079.2458 0.928 -0.001 -0.0031 0.928 -0.0031
1708781079.2534 0.934 -0.001 -0.0000 0.934 -0.0000
1708781079.2618 0.941 -0.001 -0.0000 0.941 -0.0000
1708781079.2696 0.947 -0.001 -0.0016 0.947 -0.0016
1708781079.2775 0.954 -0.001 -0.0016 0.954 -0.0016
1708781079.2850 0.961 -0.001 0.0031 0.961 0.0031
1708781079.2939 0.967 -0.001 0.0031 0.967 0.0031
1708781079.3022 0.972 -0.001 0.0031 0.972 0.0031
1708781079.3098 0.978 -0.001 -0.0000 0.978 -0.0000
1708781079.3175 0.986 -0.001 -0.0000 0.986 -0.0000
1708781079.3260 0.992 -0.001 -0.0000 0.992 -0.0000
1708781079.3336 0.998 -0.001 -0.0031 0.998 -0.0031
1708781079.3411 1.004 -0.001 -0.0016 1.004 -0.0016
1708781079.3495 1.011 -0.001 -0.0000 1.011 -0.0000
1708781079.3571 1.017 -0.001 -0.0000 1.017 -0.0000
1708781079.3660 1.023 -0.001 -0.0031 1.023 -0.0031
1708781079.3738 1.030 -0.001 -0.0047 1.030 -0.0047
1708781079.3814 1.036 -0.001 -0.0031 1.036 -0.0031
1708781079.3890 1.043 -0.001 -0.0016 1.043 -0.0016
1708781079.3975 1.049 -0.001 0.0016 1.049 0.0016
1708781079.4056 1.055 -0.001 -0.0000 1.055 -0.0000
1708781079.4261 1.072 -0.001 -0.0000 1.072 -0.0000
1708781079.4334 1.080 -0.001 0.0031 1.080 0.0031
1708781079.4416 1.086 -0.001 0.0031 1.086 0.0031
1708781079.4503 1.092 -0.001 0.0031 1.092 0.0031
1708781079.4582 1.098 -0.001 0.0031 1.098 0.0031
1708781079.4660 1.104 -0.001 0.0031 1.104 0.0031
1708781079.4748 1.111 -0.001 -0.0000 1.111 -0.0000
1708781079.4823 1.117 -0.001 -0.0016 1.117 -0.0016
1708781079.4902 1.124 -0.001 -0.0016 1.124 -0.0016
1708781079.4985 1.130 -0.001 -0.0016 1.130 -0.0016
1708781079.5061 1.136 -0.001 -0.0000 1.136 -0.0000
1708781079.5139 1.142 -0.001 0.0016 1.142 0.0016
1708781079.5237 1.149 -0.001 -0.0016 1.149 -0.0016
1708781079.5302 1.155 -0.001 -0.0031 1.155 -0.0031
1708781079.5379 1.162 -0.001 -0.0047 1.162 -0.0047
1708781079.5473 1.167 -0.001 -0.0031 1.167 -0.0031
1708781079.5542 1.174 -0.001 0.0016 1.174 0.0016
1708781079.5619 1.180 -0.001 0.0016 1.180 0.0016
1708781079.5706 1.187 -0.001 0.0016 1.187 0.0016
1708781079.5782 1.193 -0.001 -0.0000 1.193 -0.0000
1708781079.5859 1.199 -0.001 -0.0031 1.199 -0.0031
1708781079.5947 1.206 -0.001 -0.0000 1.206 -0.0000
1708781079.6040 1.212 -0.001 0.0016 1.212 0.0016
1708781079.6094 1.219 -0.001 0.0016 1.219 0.0016
1708781079.6192 1.226 -0.001 -0.0000 1.226 -0.0000
1708781079.6262 1.231 -0.001 -0.0016 1.231 -0.0016
1708781079.6339 1.236 -0.001 -0.0016 1.236 -0.0016
1708781079.6437 1.242 -0.001 -0.0016 1.242 -0.0016
1708781079.6498 1.249 -0.001 -0.0016 1.249 -0.0016
1708781079.6583 1.256 -0.001 -0.0000 1.256 -0.0000
1708781079.6672 1.262 -0.001 0.0016 1.262 0.0016
1708781079.6736 1.267 -0.001 -0.0016 1.267 -0.0016
1708781079.6824 1.274 -0.001 -0.0016 1.274 -0.0016
1708781079.6913 1.280 -0.001 0.0016 1.280 0.0016
1708781079.6974 1.286 -0.001 0.0016 1.286 0.0016
1708781079.7059 1.293 -0.001 0.0016 1.293 0.0016
1708781079.7147 1.298 -0.001 0.0016 1.299 0.0016
1708781079.7222 1.305 -0.001 0.0016 1.305 0.0016
1708781079.7299 1.311 -0.001 0.0016 1.311 0.0016
1708781079.7388 1.318 -0.001 0.0016 1.318 0.0016
1708781079.7459 1.324 -0.001 -0.0000 1.324 -0.0000
1708781079.7538 1.330 -0.001 -0.0016 1.330 -0.0016
1708781079.7628 1.336 -0.001 -0.0000 1.336 -0.0000
1708781079.7695 1.342 -0.001 0.0031 1.342 0.0031
1708781079.7774 1.349 -0.001 0.0031 1.349 0.0031
1708781079.7865 1.355 -0.001 0.0016 1.355 0.0016
1708781079.7939 1.361 -0.001 -0.0000 1.361 -0.0000
1708781079.8023 1.368 -0.001 -0.0000 1.368 -0.0000
1708781079.8111 1.374 -0.001 0.0016 1.374 0.0016
1708781079.8175 1.381 -0.000 0.0016 1.381 0.0016
1708781079.8259 1.387 -0.000 -0.0000 1.387 -0.0000
1708781079.8347 1.393 -0.000 0.0016 1.393 0.0016
1708781079.8423 1.399 -0.000 0.0016 1.399 0.0016
1708781079.8495 1.406 -0.000 -0.0000 1.406 -0.0000
1708781079.8584 1.412 -0.000 -0.0000 1.412 -0.0000
1708781079.8660 1.418 -0.000 0.0016 1.418 0.0016
1708781079.8737 1.425 -0.000 -0.0000 1.425 -0.0000
1708781079.8836 1.431 -0.000 -0.0016 1.431 -0.0016
1708781079.8902 1.437 -0.000 -0.0000 1.438 -0.0000
1708781079.8974 1.444 -0.000 0.0016 1.444 0.0016
1708781079.9073 1.450 -0.000 -0.0000 1.450 -0.0000
1708781079.9138 1.455 -0.000 -0.0031 1.455 -0.0031
1708781079.9215 1.462 -0.000 -0.0047 1.462 -0.0047
1708781079.9312 1.468 -0.001 -0.0016 1.468 -0.0016
1708781079.9379 1.474 -0.001 -0.0000 1.474 -0.0000
1708781079.9463 1.481 -0.001 0.0016 1.481 0.0016
1708781079.9554 1.487 -0.001 0.0016 1.487 0.0016
1708781079.9623 1.494 -0.001 -0.0016 1.494 -0.0016
1708781079.9702 1.500 -0.001 -0.0031 1.500 -0.0031
1708781079.9791 1.507 -0.001 -0.0016 1.507 -0.0016
1708781079.9858 1.513 -0.001 -0.0000 1.513 -0.0000
1708781079.9935 1.519 -0.001 -0.0000 1.519 -0.0000
1708781080.0031 1.525 -0.001 -0.0000 1.525 -0.0000
1708781080.0097 1.531 -0.001 0.0016 1.531 0.0016
1708781080.0174 1.538 -0.001 -0.0000 1.538 -0.0000
1708781080.0265 1.544 -0.001 -0.0016 1.544 -0.0016
1708781080.0341 1.550 -0.001 -0.0000 1.550 -0.0000
1708781080.0420 1.556 -0.001 0.0016 1.556 0.0016
1708781080.0505 1.563 -0.001 0.0016 1.563 0.0016
1708781080.0582 1.569 -0.001 -0.0031 1.569 -0.0031
1708781080.0658 1.576 -0.001 -0.0047 1.576 -0.0047
1708781080.0749 1.582 -0.001 -0.0016 1.582 -0.0016
1708781080.0819 1.588 -0.001 -0.0000 1.588 -0.0000
1708781080.0897 1.594 -0.001 0.0016 1.594 0.0016
1708781080.0993 1.600 -0.001 -0.0000 1.600 -0.0000
1708781080.1059 1.607 -0.001 -0.0016 1.607 -0.0016
1708781080.1135 1.613 -0.001 -0.0031 1.613 -0.0031
1708781080.1225 1.619 -0.001 -0.0016 1.619 -0.0016
1708781080.1302 1.625 -0.001 -0.0016 1.625 -0.0016
1708781080.1380 1.632 -0.001 0.0016 1.632 0.0016
1708781080.1464 1.639 -0.001 0.0016 1.639 0.0016
1708781080.1537 1.645 -0.001 -0.0016 1.645 -0.0016
1708781080.1614 1.651 -0.001 -0.0016 1.651 -0.0016
1708781080.1713 1.657 -0.001 -0.0000 1.657 -0.0000
1708781080.1778 1.663 -0.001 -0.0000 1.663 -0.0000
1708781080.1855 1.670 -0.001 0.0016 1.670 0.0016
1708781080.1943 1.676 -0.001 0.0016 1.676 0.0016
1708781080.2025 1.682 -0.001 -0.0016 1.682 -0.0016
1708781080.2102 1.689 -0.001 -0.0016 1.689 -0.0016
1708781080.2190 1.696 -0.001 -0.0016 1.696 -0.0016
1708781080.2255 1.702 -0.001 -0.0000 1.702 -0.0000
1708781080.2343 1.709 -0.001 0.0016 1.709 0.0016
1708781080.2428 1.714 -0.001 -0.0000 1.714 -0.0000
1708781080.2504 1.720 -0.001 -0.0016 1.720 -0.0016
1708781080.2580 1.727 -0.001 -0.0000 1.727 -0.0000
1708781080.2668 1.733 -0.001 -0.0016 1.733 -0.0016
1708781080.2743 1.740 -0.001 0.0016 1.740 0.0016
1708781080.2820 1.746 -0.001 0.0016 1.746 0.0016
1708781080.2907 1.753 -0.001 -0.0000 1.753 -0.0000
1708781080.2978 1.759 -0.001 -0.0016 1.759 -0.0016
1708781080.3057 1.765 -0.001 -0.0031 1.765 -0.0031
1708781080.3145 1.772 -0.001 0.0016 1.772 0.0016
1708781080.3217 1.778 -0.001 0.0047 1.778 0.0047
1708781080.3302 1.784 -0.001 0.0047 1.784 0.0047
1708781080.3389 1.791 -0.001 0.0016 1.791 0.0016
1708781080.3460 1.797 -0.001 -0.0047 1.797 -0.0047
1708781080.3539 1.804 -0.001 -0.0047 1.804 -0.0047
1708781080.3627 1.810 -0.001 -0.0000 1.810 -0.0000
1708781080.3702 1.816 -0.001 0.0031 1.816 0.0031
1708781080.3778 1.823 -0.001 0.0047 1.823 0.0047
1708781080.3866 1.829 -0.001 0.0016 1.829 0.0016
1708781080.3942 1.835 -0.001 -0.0016 1.835 -0.0016
1708781080.4015 1.842 -0.001 -0.0016 1.842 -0.0016
1708781080.4103 1.848 -0.001 0.0016 1.848 0.0016
1708781080.4181 1.854 -0.001 0.0047 1.854 0.0047
1708781080.4256 1.861 -0.001 0.0047 1.861 0.0047
1708781080.4345 1.867 -0.001 0.0016 1.867 0.0016
1708781080.4415 1.874 -0.001 -0.0000 1.874 -0.0000
1708781080.4499 1.880 -0.001 -0.0000 1.880 -0.0000
1708781080.4586 1.886 -0.001 0.0016 1.886 0.0016
1708781080.4662 1.892 -0.000 0.0016 1.892 0.0016
1708781080.4738 1.899 -0.000 0.0016 1.899 0.0016
1708781080.4826 1.906 -0.000 -0.0000 1.906 -0.0000
1708781080.4902 1.911 -0.000 0.0016 1.911 0.0016
1708781080.4975 1.918 -0.000 -0.0000 1.918 -0.0000
1708781080.5073 1.924 -0.000 -0.0016 1.924 -0.0016
1708781080.5137 1.930 -0.000 -0.0000 1.931 -0.0000
1708781080.5214 1.937 -0.000 -0.0016 1.937 -0.0016
1708781080.5312 1.943 -0.000 -0.0000 1.943 -0.0000
1708781080.5378 1.949 -0.000 0.0016 1.949 0.0016
1708781080.5462 1.955 -0.000 0.0016 1.955 0.0016
1708781080.5550 1.962 -0.000 -0.0000 1.962 -0.0000
1708781080.5623 1.969 -0.000 -0.0016 1.969 -0.0016
1708781080.5699 1.976 -0.000 -0.0016 1.976 -0.0016
1708781080.5787 1.982 -0.000 -0.0016 1.982 -0.0016
1708781080.5858 1.988 -0.000 0.0016 1.988 0.0016
1708781080.5936 1.994 -0.000 0.0016 1.994 0.0016
1708781080.6029 2.000 -0.000 -0.0000 2.000 -0.0000
1708781080.6096 2.006 -0.000 -0.0016 2.006 -0.0016
1708781080.6185 2.013 -0.001 -0.0047 2.013 -0.0047
1708781080.6273 2.019 -0.001 -0.0031 2.019 -0.0031
1708781080.6338 2.026 -0.001 -0.0000 2.026 -0.0000
1708781080.6415 2.032 -0.001 0.0016 2.032 0.0016
1708781080.6510 2.038 -0.001 0.0031 2.038 0.0031
1708781080.6576 2.043 -0.001 0.0016 2.043 0.0016
1708781080.6664 2.050 -0.000 0.0031 2.050 0.0031
1708781080.6751 2.056 -0.000 0.0016 2.056 0.0016
1708781080.6816 2.063 -0.000 0.0031 2.063 0.0031
1708781080.6904 2.069 -0.000 0.0016 2.069 0.0016
1708781080.6986 2.075 -0.000 -0.0000 2.075 -0.0000
1708781080.7062 2.081 -0.000 -0.0000 2.081 -0.0000
1708781080.7140 2.088 -0.000 -0.0000 2.088 -0.0000
1708781080.7227 2.095 -0.000 -0.0000 2.095 -0.0000
1708781080.7298 2.101 -0.000 -0.0000 2.101 -0.0000
1708781080.7384 2.108 -0.000 0.0016 2.108 0.0016
1708781080.7467 2.114 -0.000 0.0016 2.114 0.0016
1708781080.7535 2.120 -0.000 -0.0000 2.120 -0.0000
1708781080.7623 2.127 -0.000 -0.0031 2.127 -0.0031
1708781080.7710 2.134 -0.000 -0.0078 2.134 -0.0078
1708781080.7775 2.140 -0.001 -0.0047 2.140 -0.0047
1708781080.7862 2.146 -0.001 -0.0031 2.146 -0.0031
1708781080.7949 2.152 -0.001 -0.0016 2.152 -0.0016
1708781080.8020 2.158 -0.001 -0.0016 2.158 -0.0016
1708781080.8099 2.165 -0.001 -0.0000 2.165 -0.0000
1708781080.8187 2.171 -0.001 -0.0000 2.171 -0.0000
1708781080.8258 2.177 -0.001 -0.0016 2.177 -0.0016
1708781080.8344 2.184 -0.001 -0.0016 2.184 -0.0016
1708781080.8432 2.190 -0.001 0.0016 2.190 0.0016
1708781080.8503 2.196 -0.001 0.0031 2.196 0.0031
1708781080.8582 2.203 -0.001 -0.0000 2.203 -0.0000
1708781080.8670 2.209 -0.001 -0.0016 2.209 -0.0016
1708781080.8745 2.215 -0.001 -0.0000 2.215 -0.0000
1708781080.8814 2.221 -0.001 0.0016 2.222 0.0016
1708781080.8913 2.228 -0.001 0.0016 2.228 0.0016
1708781080.8974 2.234 -0.001 -0.0000 2.234 -0.0000
1708781080.9054 2.240 -0.001 -0.0016 2.240 -0.0016
1708781080.9224 2.246 -0.001 -0.0016 2.246 -0.0016
1708781080.9268 2.252 -0.001 -0.0000 2.252 -0.0000
1708781080.9348 2.258 -0.001 0.0016 2.258 0.0016
1708781080.9406 2.266 -0.001 0.0016 2.266 0.0016
1708781080.9477 2.271 -0.001 0.0016 2.271 0.0016
1708781080.9564 2.275 -0.001 -0.0000 2.275 -0.0000
1708781080.9667 2.279 -0.001 -0.0016 2.279 -0.0016
1708781080.9709 2.285 -0.001 -0.0000 2.285 -0.0000
1708781080.9787 2.291 -0.001 -0.0031 2.291 -0.0031
1708781080.9869 2.299 -0.001 -0.0031 2.299 -0.0031
1708781080.9944 2.305 -0.001 -0.0000 2.305 -0.0000
1708781081.0022 2.311 -0.001 0.0031 2.311 0.0031
1708781081.0112 2.316 -0.001 0.0031 2.316 0.0031
1708781081.0180 2.322 -0.001 0.0047 2.322 0.0047
