% Pose without folding and reset (log_20240212_155114.087/log_pose_abs.txt)
% 1 	Time (sec)
% 2,3 	Position x,y (m)
% 4 	heading (rad)
% 5 	Driven distance (m) - signed
% 6 	Turned angle (rad) - signed
1707749474.3275 0.000 0.000 0.0000 0.000 0.0000
1707749474.3351 0.000 0.000 0.0000 0.000 0.0000
1707749474.3431 0.000 0.000 0.0000 0.000 0.0000
1707749474.3507 0.000 0.000 0.0000 0.000 0.0000
1707749474.3588 0.000 0.000 0.0000 0.000 0.0000
1707749474.3671 0.000 0.000 0.0000 0.000 0.0000
1707749474.3749 0.000 0.000 0.0000 0.000 0.0000
1707749474.3834 0.000 0.000 0.0000 0.000 0.0000
1707749474.3906 0.000 0.000 0.0000 0.000 0.0000
1707749474.3987 0.000 0.000 0.0000 0.000 0.0000
1707749474.4076 0.000 0.000 0.0000 0.000 0.0000
1707749474.4151 0.000 0.000 0.0000 0.000 0.0000
1707749474.4233 0.000 0.000 0.0000 0.000 0.0000
1707749474.4312 0.000 0.000 0.0000 0.000 0.0000
1707749474.4395 0.000 0.000 0.0000 0.000 0.0000
1707749474.4472 0.000 0.000 0.0000 0.000 0.0000
1707749474.4616 -0.002 -0.000 0.0016 -0.002 0.0016
1707749474.4628 -0.005 -0.000 0.0016 -0.005 0.0016
1707749474.4709 -0.008 -0.000 0.0000 -0.008 0.0000
1707749474.4798 -0.008 -0.000 0.0000 -0.008 0.0000
1707749474.4872 -0.008 -0.000 0.0016 -0.008 0.0016
1707749474.4956 -0.010 -0.000 0.0031 -0.010 0.0031
1707749474.5038 -0.013 -0.000 0.0016 -0.013 0.0016
1707749474.5212 -0.015 -0.000 -0.0016 -0.015 -0.0016
1707749474.5316 -0.018 -0.000 -0.0031 -0.018 -0.0031
1707749474.5394 -0.021 -0.000 -0.0016 -0.021 -0.0016
1707749474.5424 -0.023 -0.000 -0.0016 -0.023 -0.0016
1707749474.5471 -0.026 0.000 -0.0016 -0.026 -0.0016
1707749474.5533 -0.029 0.000 0.0000 -0.029 0.0000
1707749474.5595 -0.031 0.000 0.0000 -0.031 0.0000
1707749474.5687 -0.033 0.000 0.0000 -0.033 0.0000
1707749474.5777 -0.036 0.000 0.0016 -0.036 0.0016
1707749474.5848 -0.040 -0.000 0.0031 -0.040 0.0031
1707749474.5908 -0.044 -0.000 0.0047 -0.044 0.0047
1707749474.6003 -0.048 -0.000 0.0031 -0.048 0.0031
1707749474.6072 -0.050 -0.000 0.0000 -0.050 0.0000
1707749474.6175 -0.053 -0.000 0.0000 -0.053 0.0000
1707749474.6237 -0.057 -0.000 0.0016 -0.057 0.0016
1707749474.6315 -0.061 -0.000 0.0031 -0.061 0.0031
1707749474.6392 -0.064 -0.000 0.0016 -0.064 0.0016
1707749474.6487 -0.067 -0.000 0.0000 -0.067 0.0000
1707749474.6554 -0.071 -0.000 0.0016 -0.071 0.0016
1707749474.6635 -0.075 -0.000 0.0031 -0.075 0.0031
1707749474.6717 -0.079 -0.000 0.0000 -0.079 0.0000
1707749474.6794 -0.082 -0.000 -0.0016 -0.082 -0.0016
1707749474.6873 -0.086 -0.000 -0.0016 -0.086 -0.0016
1707749474.6956 -0.090 -0.000 -0.0016 -0.090 -0.0016
1707749474.7027 -0.094 -0.000 -0.0016 -0.094 -0.0016
1707749474.7108 -0.099 -0.000 -0.0047 -0.099 -0.0047
1707749474.7200 -0.102 -0.000 -0.0031 -0.102 -0.0031
1707749474.7268 -0.106 -0.000 -0.0031 -0.106 -0.0031
1707749474.7347 -0.110 -0.000 -0.0016 -0.110 -0.0016
1707749474.7437 -0.114 -0.000 -0.0016 -0.114 -0.0016
1707749474.7516 -0.118 0.000 -0.0031 -0.118 -0.0031
1707749474.7590 -0.122 0.000 -0.0031 -0.122 -0.0031
1707749474.7673 -0.127 0.000 -0.0031 -0.127 -0.0031
1707749474.7750 -0.131 0.000 -0.0031 -0.131 -0.0031
1707749474.7837 -0.134 0.000 -0.0016 -0.134 -0.0016
1707749474.7958 -0.139 0.000 -0.0016 -0.139 -0.0016
1707749474.7997 -0.143 0.000 -0.0031 -0.143 -0.0031
1707749474.8073 -0.148 0.000 -0.0062 -0.148 -0.0062
1707749474.8158 -0.150 0.000 -0.0078 -0.150 -0.0078
1707749474.8235 -0.152 0.000 -0.0031 -0.152 -0.0031
1707749474.8311 -0.157 0.000 0.0000 -0.157 0.0000
1707749474.8396 -0.163 0.000 0.0000 -0.163 0.0000
1707749474.8472 -0.167 0.000 -0.0016 -0.167 -0.0016
1707749474.8553 -0.170 0.000 -0.0016 -0.170 -0.0016
1707749474.8633 -0.173 0.000 0.0000 -0.173 0.0000
1707749474.8710 -0.177 0.000 0.0016 -0.177 0.0016
1707749474.8790 -0.181 0.000 0.0031 -0.181 0.0031
1707749474.8882 -0.185 0.000 0.0016 -0.185 0.0016
1707749474.8950 -0.188 0.000 0.0016 -0.188 0.0016
1707749474.9036 -0.192 0.000 0.0031 -0.192 0.0031
1707749474.9117 -0.196 0.000 0.0031 -0.196 0.0031
1707749474.9193 -0.200 0.000 0.0031 -0.200 0.0031
1707749474.9272 -0.204 0.000 0.0047 -0.204 0.0047
1707749474.9359 -0.207 0.000 0.0047 -0.207 0.0047
1707749474.9435 -0.211 0.000 0.0031 -0.211 0.0031
1707749474.9515 -0.216 0.000 0.0031 -0.216 0.0031
1707749474.9594 -0.220 0.000 0.0031 -0.220 0.0031
1707749474.9674 -0.223 -0.000 0.0062 -0.223 0.0062
1707749474.9752 -0.227 -0.000 0.0031 -0.227 0.0031
1707749474.9838 -0.231 -0.000 0.0031 -0.231 0.0031
1707749474.9911 -0.235 -0.000 0.0031 -0.235 0.0031
1707749474.9991 -0.240 -0.000 0.0031 -0.240 0.0031
1707749475.0081 -0.243 -0.000 0.0016 -0.243 0.0016
1707749475.0149 -0.247 -0.000 0.0000 -0.247 0.0000
1707749475.0231 -0.251 -0.000 0.0016 -0.251 0.0016
1707749475.0323 -0.255 -0.000 0.0031 -0.255 0.0031
1707749475.0388 -0.259 -0.000 0.0000 -0.259 0.0000
1707749475.0470 -0.263 -0.000 0.0000 -0.263 0.0000
1707749475.0561 -0.267 -0.000 0.0031 -0.267 0.0031
1707749475.0667 -0.270 -0.000 0.0031 -0.270 0.0031
1707749475.0717 -0.274 -0.000 0.0016 -0.274 0.0016
1707749475.0799 -0.279 -0.000 0.0016 -0.279 0.0016
1707749475.0875 -0.282 -0.000 0.0031 -0.282 0.0031
1707749475.0955 -0.285 -0.000 0.0016 -0.285 0.0016
1707749475.1039 -0.289 -0.000 0.0000 -0.289 0.0000
1707749475.1115 -0.294 -0.000 0.0016 -0.294 0.0016
1707749475.1195 -0.299 -0.000 0.0047 -0.299 0.0047
1707749475.1277 -0.302 -0.000 0.0031 -0.302 0.0031
1707749475.1353 -0.306 -0.000 0.0000 -0.306 0.0000
1707749475.1433 -0.309 -0.000 0.0000 -0.309 0.0000
1707749475.1525 -0.314 -0.000 0.0000 -0.314 0.0000
1707749475.1591 -0.318 -0.000 0.0031 -0.318 0.0031
1707749475.1673 -0.322 -0.000 0.0016 -0.322 0.0016
1707749475.1755 -0.325 -0.000 0.0000 -0.325 0.0000
1707749475.1839 -0.329 -0.000 -0.0016 -0.329 -0.0016
1707749475.1908 -0.333 -0.000 -0.0016 -0.333 -0.0016
1707749475.1998 -0.338 -0.000 0.0000 -0.338 0.0000
1707749475.2074 -0.342 -0.000 0.0016 -0.342 0.0016
1707749475.2153 -0.345 -0.000 0.0000 -0.345 0.0000
1707749475.2236 -0.349 -0.000 -0.0016 -0.349 -0.0016
1707749475.2314 -0.353 -0.000 0.0000 -0.353 0.0000
1707749475.2391 -0.358 -0.000 0.0016 -0.358 0.0016
1707749475.2551 -0.366 -0.000 0.0047 -0.366 0.0047
1707749475.2632 -0.371 -0.000 0.0047 -0.371 0.0047
1707749475.2740 -0.375 -0.000 0.0031 -0.375 0.0031
1707749475.2813 -0.378 -0.000 0.0016 -0.378 0.0016
1707749475.2869 -0.382 -0.000 0.0000 -0.382 0.0000
1707749475.2959 -0.386 -0.000 0.0000 -0.386 0.0000
1707749475.3036 -0.389 -0.000 0.0031 -0.389 0.0031
1707749475.3115 -0.393 -0.000 0.0047 -0.393 0.0047
1707749475.3203 -0.398 -0.000 0.0031 -0.398 0.0031
1707749475.3270 -0.402 -0.000 -0.0031 -0.402 -0.0031
1707749475.3355 -0.406 -0.000 -0.0016 -0.406 -0.0016
1707749475.3434 -0.409 -0.000 0.0000 -0.409 0.0000
1707749475.3580 -0.413 -0.000 0.0000 -0.413 0.0000
1707749475.3606 -0.418 -0.000 -0.0031 -0.418 -0.0031
1707749475.3678 -0.422 -0.000 -0.0031 -0.422 -0.0031
1707749475.3753 -0.424 -0.000 -0.0031 -0.424 -0.0031
1707749475.3844 -0.425 -0.000 -0.0047 -0.425 -0.0047
1707749475.3920 -0.429 -0.000 -0.0031 -0.429 -0.0031
1707749475.3988 -0.434 -0.000 -0.0016 -0.434 -0.0016
1707749475.4075 -0.438 -0.000 0.0000 -0.438 0.0000
1707749475.4163 -0.441 -0.000 -0.0016 -0.441 -0.0016
1707749475.4237 -0.443 -0.000 -0.0016 -0.443 -0.0016
1707749475.4315 -0.447 -0.000 0.0000 -0.447 0.0000
1707749475.4400 -0.451 -0.000 0.0016 -0.451 0.0016
1707749475.4467 -0.455 -0.000 0.0000 -0.455 0.0000
1707749475.4548 -0.458 -0.000 0.0000 -0.458 0.0000
1707749475.4638 -0.461 -0.000 0.0031 -0.461 0.0031
1707749475.4713 -0.464 -0.000 0.0031 -0.464 0.0031
1707749475.4793 -0.469 -0.000 0.0016 -0.469 0.0016
1707749475.4879 -0.472 -0.000 0.0016 -0.472 0.0016
1707749475.4955 -0.475 -0.000 0.0047 -0.475 0.0047
1707749475.5034 -0.479 -0.000 0.0047 -0.479 0.0047
1707749475.5124 -0.483 -0.000 0.0047 -0.483 0.0047
1707749475.5189 -0.488 -0.000 0.0047 -0.488 0.0047
1707749475.5268 -0.491 -0.000 0.0062 -0.491 0.0062
1707749475.5354 -0.495 -0.000 0.0062 -0.495 0.0062
1707749475.5435 -0.498 -0.000 0.0047 -0.498 0.0047
1707749475.5514 -0.502 -0.000 0.0031 -0.502 0.0031
1707749475.5601 -0.507 -0.000 0.0047 -0.507 0.0047
1707749475.5668 -0.511 -0.000 0.0093 -0.511 0.0093
1707749475.5758 -0.515 -0.000 0.0078 -0.515 0.0078
1707749475.5850 -0.518 -0.000 0.0016 -0.518 0.0016
1707749475.5917 -0.522 -0.001 0.0000 -0.522 0.0000
1707749475.5995 -0.527 -0.001 0.0047 -0.527 0.0047
1707749475.6081 -0.531 -0.001 0.0062 -0.531 0.0062
1707749475.6148 -0.534 -0.001 0.0047 -0.534 0.0047
1707749475.6238 -0.538 -0.001 0.0031 -0.538 0.0031
1707749475.6316 -0.542 -0.001 0.0031 -0.542 0.0031
1707749475.6389 -0.546 -0.001 0.0016 -0.546 0.0016
1707749475.6473 -0.550 -0.001 0.0000 -0.550 0.0000
1707749475.6562 -0.554 -0.001 0.0000 -0.554 0.0000
1707749475.6629 -0.558 -0.001 0.0000 -0.558 0.0000
1707749475.6715 -0.562 -0.001 0.0000 -0.562 0.0000
1707749475.6805 -0.566 -0.001 -0.0016 -0.566 -0.0016
1707749475.6877 -0.569 -0.001 -0.0016 -0.569 -0.0016
1707749475.6947 -0.574 -0.001 -0.0016 -0.574 -0.0016
1707749475.7037 -0.578 -0.001 -0.0016 -0.578 -0.0016
1707749475.7113 -0.581 -0.001 -0.0047 -0.581 -0.0047
1707749475.7190 -0.585 -0.001 -0.0047 -0.585 -0.0047
1707749475.7281 -0.589 -0.001 -0.0047 -0.589 -0.0047
1707749475.7355 -0.594 -0.001 -0.0031 -0.594 -0.0031
1707749475.7432 -0.597 -0.000 -0.0031 -0.597 -0.0031
1707749475.7522 -0.601 -0.000 -0.0047 -0.601 -0.0047
1707749475.7589 -0.605 -0.000 -0.0031 -0.605 -0.0031
1707749475.7681 -0.609 -0.000 -0.0031 -0.609 -0.0031
1707749475.7761 -0.613 -0.000 -0.0031 -0.613 -0.0031
1707749475.7844 -0.617 -0.000 -0.0016 -0.617 -0.0016
1707749475.7912 -0.621 -0.000 -0.0016 -0.621 -0.0016
1707749475.7996 -0.625 -0.000 -0.0031 -0.625 -0.0031
1707749475.8073 -0.629 -0.000 -0.0016 -0.629 -0.0016
1707749475.8151 -0.632 -0.000 -0.0016 -0.632 -0.0016
1707749475.8262 -0.637 -0.000 0.0000 -0.637 0.0000
1707749475.8313 -0.641 -0.000 0.0031 -0.641 0.0031
1707749475.8396 -0.645 -0.000 0.0031 -0.645 0.0031
1707749475.8477 -0.648 -0.000 0.0000 -0.648 0.0000
1707749475.8554 -0.651 -0.000 0.0016 -0.651 0.0016
1707749475.8632 -0.656 -0.000 0.0031 -0.656 0.0031
1707749475.8721 -0.660 -0.000 0.0031 -0.660 0.0031
1707749475.8796 -0.664 -0.000 0.0016 -0.664 0.0016
1707749475.8871 -0.668 -0.000 -0.0016 -0.668 -0.0016
1707749475.8961 -0.671 -0.000 0.0000 -0.671 0.0000
1707749475.9038 -0.676 -0.000 0.0031 -0.676 0.0031
1707749475.9117 -0.680 -0.000 0.0031 -0.680 0.0031
1707749475.9194 -0.684 -0.000 0.0031 -0.684 0.0031
1707749475.9270 -0.688 -0.000 0.0031 -0.688 0.0031
1707749475.9350 -0.691 -0.001 0.0031 -0.691 0.0031
1707749475.9441 -0.695 -0.001 0.0016 -0.695 0.0016
1707749475.9510 -0.700 -0.001 0.0000 -0.700 0.0000
1707749475.9594 -0.704 -0.001 0.0031 -0.704 0.0031
1707749475.9682 -0.708 -0.001 0.0047 -0.708 0.0047
1707749475.9748 -0.712 -0.001 0.0016 -0.712 0.0016
1707749475.9835 -0.716 -0.001 0.0000 -0.716 0.0000
1707749475.9914 -0.719 -0.001 0.0000 -0.719 0.0000
1707749475.9990 -0.723 -0.001 0.0016 -0.723 0.0016
1707749476.0069 -0.728 -0.001 0.0016 -0.728 0.0016
1707749476.0159 -0.732 -0.001 0.0000 -0.732 0.0000
1707749476.0228 -0.735 -0.001 0.0000 -0.735 0.0000
1707749476.0317 -0.739 -0.001 -0.0016 -0.739 -0.0016
1707749476.0404 -0.743 -0.001 -0.0016 -0.743 -0.0016
1707749476.0471 -0.748 -0.001 0.0016 -0.748 0.0016
1707749476.0548 -0.752 -0.001 0.0000 -0.752 0.0000
1707749476.0643 -0.755 -0.001 -0.0047 -0.755 -0.0047
1707749476.0713 -0.759 -0.001 -0.0062 -0.759 -0.0062
1707749476.0791 -0.763 -0.001 -0.0031 -0.763 -0.0031
1707749476.0876 -0.767 -0.001 0.0000 -0.767 0.0000
1707749476.0963 -0.771 -0.001 0.0000 -0.771 0.0000
1707749476.1031 -0.775 -0.001 -0.0016 -0.775 -0.0016
1707749476.1121 -0.779 -0.001 -0.0031 -0.779 -0.0031
1707749476.1188 -0.783 -0.000 -0.0016 -0.783 -0.0016
1707749476.1268 -0.787 -0.000 0.0000 -0.787 0.0000
1707749476.1354 -0.791 -0.000 0.0000 -0.791 0.0000
1707749476.1429 -0.794 -0.000 -0.0016 -0.794 -0.0016
1707749476.1515 -0.799 -0.000 -0.0031 -0.799 -0.0031
1707749476.1604 -0.803 -0.000 0.0000 -0.803 0.0000
1707749476.1670 -0.806 -0.000 0.0000 -0.806 0.0000
1707749476.1749 -0.810 -0.000 0.0000 -0.810 0.0000
1707749476.2002 -0.814 -0.000 -0.0016 -0.814 -0.0016
1707749476.2023 -0.818 -0.000 -0.0031 -0.818 -0.0031
1707749476.2075 -0.822 -0.000 -0.0031 -0.822 -0.0031
1707749476.2168 -0.826 -0.000 -0.0016 -0.826 -0.0016
1707749476.2182 -0.829 -0.000 0.0000 -0.829 0.0000
1707749476.2238 -0.831 -0.000 0.0000 -0.831 0.0000
1707749476.2320 -0.832 -0.000 0.0016 -0.832 0.0016
1707749476.2395 -0.835 -0.000 0.0000 -0.835 0.0000
1707749476.2478 -0.839 -0.000 0.0016 -0.839 0.0016
1707749476.2560 -0.842 -0.000 0.0016 -0.842 0.0016
1707749476.2628 -0.845 -0.000 0.0016 -0.845 0.0016
1707749476.2713 -0.847 -0.000 0.0000 -0.847 0.0000
1707749476.2794 -0.850 -0.000 0.0000 -0.850 0.0000
1707749476.2870 -0.854 -0.000 0.0000 -0.854 0.0000
1707749476.2952 -0.857 -0.000 0.0000 -0.857 0.0000
1707749476.3047 -0.860 -0.000 0.0000 -0.860 0.0000
1707749476.3114 -0.863 -0.000 0.0000 -0.863 0.0000
1707749476.3189 -0.866 -0.000 0.0000 -0.866 0.0000
1707749476.3279 -0.869 -0.000 -0.0016 -0.869 -0.0016
1707749476.3353 -0.872 -0.000 -0.0016 -0.872 -0.0016
1707749476.3432 -0.875 -0.000 -0.0016 -0.875 -0.0016
1707749476.3515 -0.878 -0.000 -0.0031 -0.878 -0.0031
1707749476.3594 -0.882 -0.000 -0.0031 -0.882 -0.0031
1707749476.3687 -0.886 -0.000 -0.0016 -0.886 -0.0016
1707749476.3758 -0.889 -0.000 -0.0031 -0.889 -0.0031
1707749476.3843 -0.894 -0.000 -0.0031 -0.894 -0.0031
1707749476.3913 -0.897 -0.000 -0.0016 -0.897 -0.0016
1707749476.4012 -0.901 -0.000 -0.0016 -0.901 -0.0016
1707749476.4069 -0.905 -0.000 -0.0031 -0.905 -0.0031
1707749476.4149 -0.909 -0.000 -0.0016 -0.909 -0.0016
1707749476.4242 -0.913 -0.000 0.0000 -0.913 0.0000
1707749476.4309 -0.917 -0.000 0.0000 -0.917 0.0000
1707749476.4388 -0.921 -0.000 -0.0016 -0.921 -0.0016
1707749476.4485 -0.925 -0.000 -0.0016 -0.925 -0.0016
1707749476.4552 -0.928 -0.000 0.0000 -0.928 0.0000
1707749476.4631 -0.932 -0.000 0.0016 -0.932 0.0016
1707749476.4723 -0.936 -0.000 -0.0016 -0.936 -0.0016
1707749476.4797 -0.940 -0.000 -0.0031 -0.940 -0.0031
1707749476.4869 -0.945 -0.000 -0.0016 -0.945 -0.0016
1707749476.4962 -0.949 -0.000 0.0031 -0.949 0.0031
1707749476.5029 -0.952 -0.000 0.0031 -0.952 0.0031
1707749476.5110 -0.956 -0.000 0.0031 -0.956 0.0031
1707749476.5202 -0.960 -0.000 0.0031 -0.960 0.0031
1707749476.5270 -0.964 -0.000 0.0031 -0.964 0.0031
1707749476.5347 -0.969 -0.000 0.0031 -0.969 0.0031
1707749476.5490 -0.972 -0.000 0.0047 -0.972 0.0047
1707749476.5511 -0.975 -0.000 0.0031 -0.975 0.0031
1707749476.5592 -0.979 -0.000 0.0016 -0.979 0.0016
1707749476.5675 -0.981 -0.000 0.0031 -0.981 0.0031
1707749476.5754 -0.984 -0.000 0.0031 -0.984 0.0031
1707749476.5839 -0.989 -0.000 0.0031 -0.989 0.0031
1707749476.5918 -0.993 -0.000 0.0016 -0.993 0.0016
1707749476.5993 -0.997 -0.000 0.0047 -0.997 0.0047
1707749476.6073 -0.999 -0.000 0.0047 -0.999 0.0047
1707749476.6164 -1.002 -0.000 0.0031 -1.002 0.0031
