% Pose without folding and reset (log_20240224_124929.950/log_pose_abs.txt)
% 1 	Time (sec)
% 2,3 	Position x,y (m)
% 4 	heading (rad)
% 5 	Driven distance (m) - signed
% 6 	Turned angle (rad) - signed
1708775370.8534 0.000 0.000 0.0000 0.000 0.0000
1708775370.8634 0.000 0.000 0.0000 0.000 0.0000
1708775370.8753 0.000 0.000 0.0031 0.000 0.0031
1708775370.8827 0.001 0.000 0.0047 0.001 0.0047
1708775370.8919 0.001 0.000 0.0047 0.001 0.0047
1708775370.9035 0.001 0.000 0.0047 0.001 0.0047
1708775370.9099 0.001 0.000 0.0047 0.001 0.0047
1708775370.9191 0.001 0.000 0.0047 0.001 0.0047
1708775370.9270 0.001 0.000 0.0047 0.001 0.0047
1708775370.9316 0.001 0.000 0.0047 0.001 0.0047
1708775370.9343 0.001 0.000 0.0047 0.001 0.0047
1708775370.9409 0.001 0.000 0.0047 0.001 0.0047
1708775370.9479 0.001 0.000 0.0047 0.001 0.0047
1708775370.9563 0.001 0.000 0.0047 0.001 0.0047
1708775370.9698 0.001 0.000 0.0047 0.001 0.0047
1708775370.9714 0.001 0.000 0.0047 0.001 0.0047
1708775370.9794 0.001 0.000 0.0047 0.001 0.0047
1708775370.9883 0.001 0.000 0.0062 0.001 0.0062
1708775370.9963 0.003 0.000 0.0047 0.003 0.0047
1708775371.0045 0.006 0.000 0.0047 0.006 0.0047
1708775371.0127 0.008 0.000 0.0031 0.008 0.0031
1708775371.0196 0.010 0.000 0.0031 0.010 0.0031
1708775371.0279 0.012 0.000 0.0031 0.012 0.0031
1708775371.0381 0.014 0.000 0.0016 0.014 0.0016
1708775371.0443 0.017 0.000 0.0031 0.017 0.0031
1708775371.0527 0.020 0.000 0.0031 0.020 0.0031
1708775371.0610 0.022 0.000 0.0016 0.022 0.0016
1708775371.0688 0.024 0.000 -0.0000 0.024 -0.0000
1708775371.0760 0.026 0.000 -0.0000 0.026 -0.0000
1708775371.0846 0.029 0.000 -0.0000 0.029 -0.0000
1708775371.0921 0.032 0.000 -0.0000 0.032 -0.0000
1708775371.1005 0.035 0.000 -0.0031 0.035 -0.0031
1708775371.1087 0.038 0.000 -0.0016 0.038 -0.0016
1708775371.1167 0.041 0.000 -0.0000 0.041 -0.0000
1708775371.1241 0.044 0.000 0.0031 0.044 0.0031
1708775371.1327 0.047 0.000 -0.0000 0.047 -0.0000
1708775371.1408 0.050 0.000 -0.0016 0.050 -0.0016
1708775371.1478 0.053 0.000 -0.0000 0.053 -0.0000
1708775371.1564 0.056 0.000 0.0016 0.056 0.0016
1708775371.1642 0.059 0.000 0.0047 0.059 0.0047
1708775371.1720 0.061 0.000 0.0031 0.061 0.0031
1708775371.1808 0.065 0.000 -0.0000 0.065 -0.0000
1708775371.1878 0.068 0.000 -0.0000 0.068 -0.0000
1708775371.1967 0.071 0.000 0.0031 0.071 0.0031
1708775371.2042 0.074 0.000 0.0047 0.074 0.0047
1708775371.2131 0.077 0.000 0.0047 0.077 0.0047
1708775371.2197 0.080 0.000 0.0031 0.080 0.0031
1708775371.2283 0.084 0.000 0.0016 0.084 0.0016
1708775371.2364 0.086 0.000 0.0031 0.086 0.0031
1708775371.2443 0.089 0.000 0.0047 0.089 0.0047
1708775371.2529 0.093 0.000 0.0047 0.093 0.0047
1708775371.2603 0.096 0.000 0.0031 0.096 0.0031
1708775371.2679 0.099 0.000 0.0016 0.099 0.0016
1708775371.2765 0.102 0.000 0.0016 0.102 0.0016
1708775371.2842 0.105 0.000 0.0047 0.105 0.0047
1708775371.2919 0.108 0.000 0.0047 0.108 0.0047
1708775371.3010 0.112 0.000 0.0047 0.112 0.0047
1708775371.3081 0.115 0.000 0.0031 0.115 0.0031
1708775371.3168 0.118 0.000 0.0031 0.118 0.0031
1708775371.3244 0.121 0.000 0.0062 0.121 0.0062
1708775371.3326 0.124 0.000 0.0047 0.124 0.0047
1708775371.3408 0.128 0.000 0.0016 0.128 0.0016
1708775371.3485 0.131 0.000 0.0031 0.131 0.0031
1708775371.3564 0.134 0.000 0.0047 0.134 0.0047
1708775371.3641 0.137 0.000 0.0047 0.137 0.0047
1708775371.3729 0.140 0.000 0.0016 0.140 0.0016
1708775371.3800 0.143 0.000 -0.0000 0.143 -0.0000
1708775371.3884 0.147 0.000 0.0016 0.147 0.0016
1708775371.3973 0.150 0.000 0.0047 0.150 0.0047
1708775371.4043 0.153 0.000 0.0047 0.153 0.0047
1708775371.4132 0.156 0.000 0.0031 0.156 0.0031
1708775371.4209 0.159 0.000 0.0016 0.159 0.0016
1708775371.4281 0.162 0.000 0.0047 0.162 0.0047
1708775371.4459 0.169 0.000 0.0093 0.169 0.0093
1708775371.4522 0.172 0.000 0.0047 0.172 0.0047
1708775371.4598 0.175 0.000 -0.0000 0.175 -0.0000
1708775371.4681 0.178 0.000 0.0031 0.178 0.0031
1708775371.4762 0.181 0.001 0.0093 0.181 0.0093
1708775371.4844 0.184 0.001 0.0109 0.184 0.0109
1708775371.4928 0.187 0.001 0.0062 0.187 0.0062
1708775371.5001 0.191 0.001 0.0031 0.191 0.0031
1708775371.5085 0.194 0.001 0.0031 0.194 0.0031
1708775371.5167 0.197 0.001 0.0062 0.197 0.0062
1708775371.5247 0.200 0.001 0.0078 0.200 0.0078
1708775371.5324 0.203 0.001 0.0062 0.203 0.0062
1708775371.5402 0.207 0.001 0.0031 0.207 0.0031
1708775371.5483 0.210 0.001 0.0031 0.210 0.0031
1708775371.5563 0.213 0.001 0.0062 0.213 0.0062
1708775371.5646 0.216 0.001 0.0062 0.216 0.0062
1708775371.5727 0.220 0.001 0.0078 0.220 0.0078
1708775371.5805 0.223 0.001 0.0078 0.223 0.0078
1708775371.5881 0.226 0.001 0.0062 0.226 0.0062
1708775371.5962 0.229 0.001 0.0047 0.229 0.0047
1708775371.6041 0.232 0.001 0.0047 0.232 0.0047
1708775371.6136 0.235 0.001 0.0062 0.235 0.0062
1708775371.6204 0.238 0.001 0.0093 0.238 0.0093
1708775371.6282 0.242 0.001 0.0078 0.242 0.0078
1708775371.6368 0.245 0.001 0.0047 0.245 0.0047
1708775371.6440 0.248 0.001 0.0062 0.248 0.0062
1708775371.6520 0.251 0.001 0.0078 0.251 0.0078
1708775371.6608 0.254 0.001 0.0047 0.254 0.0047
1708775371.6681 0.257 0.001 0.0047 0.257 0.0047
1708775371.6762 0.261 0.001 0.0031 0.261 0.0031
1708775371.6850 0.264 0.001 0.0031 0.264 0.0031
1708775371.6920 0.266 0.001 0.0047 0.266 0.0047
1708775371.7001 0.270 0.001 0.0047 0.270 0.0047
1708775371.7088 0.273 0.001 0.0031 0.273 0.0031
1708775371.7162 0.276 0.001 0.0031 0.276 0.0031
1708775371.7242 0.280 0.001 0.0047 0.280 0.0047
1708775371.7329 0.283 0.001 0.0047 0.283 0.0047
1708775371.7399 0.286 0.001 0.0047 0.286 0.0047
1708775371.7480 0.289 0.001 0.0031 0.289 0.0031
1708775371.7574 0.292 0.001 0.0031 0.292 0.0031
1708775371.7641 0.295 0.001 0.0078 0.295 0.0078
1708775371.7720 0.299 0.001 0.0078 0.299 0.0078
1708775371.7828 0.302 0.001 0.0047 0.302 0.0047
1708775371.7877 0.305 0.001 0.0031 0.305 0.0031
1708775371.7965 0.307 0.001 0.0016 0.307 0.0016
1708775371.8039 0.309 0.001 0.0016 0.309 0.0016
1708775371.8120 0.313 0.001 0.0031 0.313 0.0031
1708775371.8198 0.316 0.001 0.0031 0.316 0.0031
1708775371.8280 0.319 0.001 0.0031 0.319 0.0031
1708775371.8360 0.323 0.001 0.0016 0.323 0.0016
1708775371.8447 0.325 0.001 0.0016 0.325 0.0016
1708775371.8520 0.329 0.001 0.0031 0.329 0.0031
1708775371.8603 0.332 0.001 0.0062 0.332 0.0062
1708775371.8680 0.336 0.001 0.0078 0.336 0.0078
1708775371.8767 0.339 0.001 0.0093 0.339 0.0093
1708775371.8838 0.342 0.001 0.0093 0.342 0.0093
1708775371.8927 0.346 0.001 0.0062 0.346 0.0062
1708775371.9004 0.349 0.001 0.0031 0.349 0.0031
1708775371.9086 0.352 0.001 0.0016 0.352 0.0016
1708775371.9168 0.355 0.001 0.0031 0.355 0.0031
1708775371.9243 0.358 0.001 0.0078 0.358 0.0078
1708775371.9326 0.361 0.001 0.0062 0.361 0.0062
1708775371.9405 0.365 0.001 0.0016 0.365 0.0016
1708775371.9498 0.368 0.001 0.0031 0.368 0.0031
1708775371.9565 0.371 0.001 0.0062 0.371 0.0062
1708775371.9642 0.374 0.001 0.0093 0.374 0.0093
1708775371.9721 0.377 0.002 0.0062 0.377 0.0062
1708775371.9804 0.380 0.002 0.0016 0.380 0.0016
1708775371.9884 0.383 0.002 0.0016 0.383 0.0016
1708775371.9959 0.387 0.002 0.0062 0.387 0.0062
1708775372.0039 0.390 0.002 0.0093 0.390 0.0093
1708775372.0120 0.393 0.002 0.0047 0.393 0.0047
1708775372.0204 0.396 0.002 -0.0000 0.396 -0.0000
1708775372.0282 0.399 0.002 0.0016 0.399 0.0016
1708775372.0364 0.403 0.002 0.0047 0.403 0.0047
1708775372.0439 0.406 0.002 0.0047 0.406 0.0047
1708775372.0520 0.409 0.002 0.0031 0.409 0.0031
1708775372.0601 0.412 0.002 -0.0000 0.412 -0.0000
1708775372.0682 0.415 0.002 0.0016 0.415 0.0016
1708775372.0760 0.418 0.002 -0.0031 0.418 -0.0031
1708775372.0841 0.422 0.002 -0.0047 0.422 -0.0047
1708775372.0927 0.425 0.002 -0.0016 0.425 -0.0016
1708775372.1008 0.428 0.002 0.0031 0.428 0.0031
1708775372.1079 0.431 0.002 0.0016 0.431 0.0016
1708775372.1169 0.434 0.002 -0.0000 0.434 -0.0000
1708775372.1239 0.437 0.002 -0.0000 0.437 -0.0000
1708775372.1320 0.440 0.002 0.0016 0.440 0.0016
1708775372.1409 0.443 0.002 0.0031 0.443 0.0031
1708775372.1480 0.446 0.002 0.0016 0.446 0.0016
1708775372.1563 0.450 0.002 -0.0000 0.450 -0.0000
1708775372.1646 0.453 0.002 0.0016 0.453 0.0016
1708775372.1726 0.456 0.002 0.0047 0.456 0.0047
1708775372.1806 0.459 0.002 0.0047 0.459 0.0047
1708775372.1882 0.462 0.002 0.0031 0.462 0.0031
1708775372.1963 0.466 0.002 0.0031 0.466 0.0031
1708775372.2043 0.469 0.002 0.0047 0.469 0.0047
1708775372.2128 0.472 0.002 0.0047 0.472 0.0047
1708775372.2205 0.475 0.002 0.0047 0.475 0.0047
1708775372.2286 0.479 0.002 0.0047 0.479 0.0047
1708775372.2362 0.482 0.002 0.0047 0.482 0.0047
1708775372.2443 0.485 0.002 0.0078 0.485 0.0078
1708775372.2520 0.488 0.002 0.0078 0.488 0.0078
1708775372.2608 0.491 0.002 0.0047 0.491 0.0047
1708775372.2686 0.495 0.002 0.0016 0.495 0.0016
1708775372.2765 0.498 0.002 0.0031 0.498 0.0031
1708775372.2841 0.501 0.002 0.0062 0.501 0.0062
1708775372.2927 0.504 0.002 0.0078 0.504 0.0078
1708775372.3006 0.507 0.002 0.0047 0.507 0.0047
1708775372.3087 0.511 0.002 0.0031 0.511 0.0031
1708775372.3163 0.514 0.002 0.0047 0.514 0.0047
1708775372.3243 0.517 0.002 0.0078 0.517 0.0078
1708775372.3330 0.520 0.002 0.0078 0.520 0.0078
1708775372.3400 0.523 0.002 0.0047 0.523 0.0047
1708775372.3485 0.527 0.002 0.0031 0.527 0.0031
1708775372.3560 0.530 0.002 0.0078 0.530 0.0078
1708775372.3638 0.533 0.002 0.0093 0.533 0.0093
1708775372.3719 0.536 0.002 0.0078 0.536 0.0078
1708775372.3883 0.542 0.002 0.0016 0.542 0.0016
1708775372.3963 0.546 0.002 -0.0016 0.546 -0.0016
1708775372.4049 0.550 0.002 -0.0016 0.550 -0.0016
1708775372.4119 0.553 0.002 0.0031 0.553 0.0031
1708775372.4206 0.556 0.002 0.0031 0.556 0.0031
1708775372.4282 0.558 0.002 0.0016 0.558 0.0016
1708775372.4361 0.562 0.002 0.0047 0.562 0.0047
1708775372.4441 0.566 0.002 0.0047 0.566 0.0047
1708775372.4526 0.569 0.002 0.0047 0.569 0.0047
1708775372.4607 0.571 0.002 0.0062 0.571 0.0062
1708775372.4678 0.575 0.002 0.0047 0.575 0.0047
1708775372.4774 0.578 0.002 0.0031 0.578 0.0031
1708775372.4846 0.581 0.002 0.0047 0.581 0.0047
1708775372.4927 0.584 0.002 0.0062 0.584 0.0062
1708775372.5004 0.588 0.002 0.0047 0.588 0.0047
1708775372.5078 0.591 0.002 -0.0000 0.591 -0.0000
1708775372.5164 0.594 0.002 -0.0016 0.594 -0.0016
1708775372.5247 0.597 0.002 0.0016 0.597 0.0016
1708775372.5318 0.600 0.002 0.0062 0.600 0.0062
1708775372.5398 0.604 0.002 0.0062 0.604 0.0062
1708775372.5484 0.607 0.002 0.0031 0.607 0.0031
1708775372.5565 0.610 0.002 0.0031 0.610 0.0031
1708775372.5642 0.613 0.002 0.0047 0.613 0.0047
1708775372.5726 0.616 0.002 0.0062 0.616 0.0062
1708775372.5807 0.619 0.002 0.0062 0.619 0.0062
1708775372.5888 0.623 0.002 0.0016 0.623 0.0016
1708775372.5963 0.626 0.002 -0.0016 0.626 -0.0016
1708775372.6043 0.629 0.002 0.0031 0.629 0.0031
1708775372.6121 0.632 0.002 0.0062 0.632 0.0062
1708775372.6204 0.635 0.002 0.0047 0.635 0.0047
1708775372.6285 0.638 0.002 0.0016 0.638 0.0016
1708775372.6366 0.641 0.002 0.0031 0.641 0.0031
1708775372.6443 0.644 0.002 0.0047 0.644 0.0047
1708775372.6523 0.648 0.002 0.0047 0.648 0.0047
1708775372.6603 0.651 0.002 0.0031 0.651 0.0031
1708775372.6684 0.654 0.002 0.0031 0.654 0.0031
1708775372.6765 0.657 0.002 0.0031 0.657 0.0031
1708775372.6845 0.661 0.003 0.0047 0.661 0.0047
1708775372.6920 0.664 0.003 0.0062 0.664 0.0062
1708775372.7000 0.667 0.003 0.0062 0.667 0.0062
1708775372.7080 0.670 0.003 0.0047 0.670 0.0047
1708775372.7163 0.673 0.003 0.0031 0.673 0.0031
1708775372.7243 0.677 0.003 0.0031 0.677 0.0031
1708775372.7323 0.680 0.003 0.0047 0.680 0.0047
1708775372.7410 0.683 0.003 0.0062 0.683 0.0062
1708775372.7478 0.686 0.003 0.0062 0.686 0.0062
1708775372.7558 0.689 0.003 0.0047 0.689 0.0047
1708775372.7641 0.693 0.003 0.0031 0.693 0.0031
1708775372.7721 0.696 0.003 0.0047 0.696 0.0047
1708775372.7802 0.699 0.003 0.0062 0.699 0.0062
1708775372.7892 0.703 0.003 0.0047 0.703 0.0047
1708775372.7960 0.706 0.003 0.0016 0.706 0.0016
1708775372.8038 0.709 0.003 0.0031 0.709 0.0031
1708775372.8125 0.712 0.003 0.0047 0.712 0.0047
1708775372.8201 0.715 0.003 0.0062 0.715 0.0062
1708775372.8282 0.718 0.003 0.0047 0.718 0.0047
1708775372.8377 0.722 0.003 0.0031 0.722 0.0031
1708775372.8453 0.725 0.003 0.0031 0.725 0.0031
1708775372.8522 0.728 0.003 0.0031 0.728 0.0031
1708775372.8610 0.731 0.003 0.0047 0.731 0.0047
1708775372.8687 0.734 0.003 0.0047 0.734 0.0047
1708775372.8767 0.737 0.003 0.0047 0.737 0.0047
1708775372.8841 0.740 0.003 0.0031 0.740 0.0031
1708775372.8921 0.744 0.003 0.0031 0.744 0.0031
1708775372.9001 0.747 0.003 -0.0000 0.747 -0.0000
1708775372.9089 0.750 0.003 -0.0000 0.750 -0.0000
1708775372.9169 0.753 0.003 0.0031 0.753 0.0031
1708775372.9246 0.757 0.003 0.0062 0.757 0.0062
1708775372.9320 0.760 0.003 0.0031 0.760 0.0031
1708775372.9400 0.763 0.003 0.0031 0.763 0.0031
1708775372.9483 0.766 0.003 0.0047 0.766 0.0047
1708775372.9569 0.769 0.003 0.0062 0.769 0.0062
1708775372.9645 0.772 0.003 0.0047 0.772 0.0047
1708775372.9811 0.776 0.003 0.0031 0.776 0.0031
1708775372.9833 0.779 0.003 0.0047 0.779 0.0047
1708775372.9882 0.781 0.003 0.0047 0.781 0.0047
1708775372.9961 0.784 0.003 0.0078 0.784 0.0078
1708775373.0047 0.786 0.003 0.0078 0.786 0.0078
1708775373.0118 0.788 0.003 0.0093 0.788 0.0093
1708775373.0203 0.792 0.003 0.0093 0.792 0.0093
1708775373.0279 0.796 0.003 0.0078 0.796 0.0078
1708775373.0362 0.799 0.003 0.0062 0.799 0.0062
1708775373.0443 0.802 0.003 0.0047 0.802 0.0047
1708775373.0524 0.805 0.003 0.0047 0.805 0.0047
1708775373.0606 0.809 0.003 0.0047 0.809 0.0047
1708775373.0683 0.812 0.003 0.0047 0.812 0.0047
1708775373.0765 0.815 0.003 0.0047 0.815 0.0047
1708775373.0847 0.818 0.003 0.0047 0.818 0.0047
1708775373.0927 0.821 0.003 0.0016 0.821 0.0016
1708775373.1003 0.825 0.003 0.0031 0.825 0.0031
1708775373.1164 0.831 0.003 0.0062 0.831 0.0062
1708775373.1241 0.833 0.003 0.0062 0.833 0.0062
1708775373.1325 0.836 0.003 0.0062 0.836 0.0062
1708775373.1399 0.840 0.003 0.0062 0.840 0.0062
1708775373.1490 0.843 0.003 0.0062 0.843 0.0062
1708775373.1560 0.846 0.003 0.0062 0.846 0.0062
1708775373.1639 0.850 0.003 0.0047 0.850 0.0047
1708775373.1729 0.853 0.003 0.0047 0.853 0.0047
1708775373.1802 0.856 0.003 0.0078 0.856 0.0078
1708775373.1885 0.859 0.003 0.0062 0.859 0.0062
1708775373.1973 0.862 0.003 0.0047 0.862 0.0047
1708775373.2046 0.865 0.003 0.0047 0.865 0.0047
1708775373.2129 0.869 0.003 0.0047 0.869 0.0047
1708775373.2203 0.872 0.004 0.0016 0.872 0.0016
1708775373.2286 0.875 0.004 0.0016 0.875 0.0016
1708775373.2359 0.878 0.004 0.0031 0.878 0.0031
1708775373.2450 0.882 0.004 0.0047 0.882 0.0047
1708775373.2522 0.885 0.004 0.0031 0.885 0.0031
1708775373.2598 0.888 0.004 0.0016 0.888 0.0016
1708775373.2687 0.891 0.004 0.0031 0.891 0.0031
1708775373.2760 0.894 0.004 0.0047 0.894 0.0047
1708775373.2842 0.898 0.004 0.0062 0.898 0.0062
1708775373.2929 0.901 0.004 0.0062 0.901 0.0062
1708775373.3000 0.904 0.004 0.0047 0.904 0.0047
1708775373.3085 0.907 0.004 0.0047 0.907 0.0047
1708775373.3171 0.910 0.004 0.0047 0.910 0.0047
1708775373.3243 0.914 0.004 0.0062 0.914 0.0062
1708775373.3330 0.917 0.004 0.0062 0.917 0.0062
1708775373.3414 0.920 0.004 0.0031 0.920 0.0031
1708775373.3484 0.923 0.004 0.0031 0.923 0.0031
1708775373.3565 0.927 0.004 0.0031 0.927 0.0031
1708775373.3646 0.930 0.004 0.0031 0.930 0.0031
1708775373.3721 0.932 0.004 0.0062 0.932 0.0062
1708775373.3803 0.936 0.004 0.0078 0.936 0.0078
1708775373.3881 0.939 0.004 0.0047 0.939 0.0047
1708775373.3964 0.942 0.004 0.0031 0.942 0.0031
1708775373.4045 0.945 0.004 0.0031 0.945 0.0031
1708775373.4126 0.949 0.004 0.0062 0.949 0.0062
1708775373.4198 0.952 0.004 0.0062 0.952 0.0062
1708775373.4287 0.955 0.004 0.0016 0.955 0.0016
1708775373.4366 0.958 0.004 0.0016 0.958 0.0016
1708775373.4437 0.962 0.004 0.0047 0.962 0.0047
1708775373.4518 0.965 0.004 0.0078 0.965 0.0078
1708775373.4606 0.968 0.004 0.0062 0.968 0.0062
1708775373.4683 0.971 0.004 0.0016 0.971 0.0016
1708775373.4767 0.975 0.004 -0.0000 0.975 -0.0000
1708775373.4846 0.978 0.004 0.0031 0.978 0.0031
1708775373.4919 0.981 0.004 0.0062 0.981 0.0062
1708775373.5001 0.984 0.004 0.0047 0.984 0.0047
1708775373.5090 0.987 0.004 0.0047 0.987 0.0047
1708775373.5166 0.991 0.004 0.0031 0.991 0.0031
1708775373.5240 0.994 0.004 0.0016 0.994 0.0016
1708775373.5331 0.997 0.004 0.0031 0.997 0.0031
1708775373.5404 1.000 0.004 0.0031 1.000 0.0031
1708775373.5489 1.003 0.004 0.0031 1.003 0.0031
1708775373.5576 1.006 0.004 0.0062 1.006 0.0062
1708775373.5645 1.010 0.004 0.0047 1.010 0.0047
1708775373.5728 1.013 0.004 0.0031 1.013 0.0031
1708775373.5807 1.016 0.004 0.0016 1.016 0.0016
1708775373.5881 1.019 0.004 0.0031 1.019 0.0031
1708775373.5963 1.022 0.004 0.0047 1.022 0.0047
1708775373.6050 1.025 0.004 0.0047 1.025 0.0047
1708775373.6124 1.029 0.004 0.0031 1.029 0.0031
1708775373.6203 1.032 0.004 0.0016 1.032 0.0016
1708775373.6293 1.035 0.004 0.0047 1.035 0.0047
1708775373.6359 1.038 0.004 0.0062 1.038 0.0062
1708775373.6442 1.041 0.004 0.0078 1.041 0.0078
1708775373.6530 1.044 0.004 0.0078 1.044 0.0078
1708775373.6602 1.047 0.004 0.0031 1.047 0.0031
1708775373.6681 1.051 0.004 0.0016 1.051 0.0016
1708775373.6771 1.054 0.004 0.0031 1.054 0.0031
1708775373.6843 1.057 0.004 0.0062 1.057 0.0062
1708775373.6925 1.060 0.004 0.0078 1.060 0.0078
1708775373.7006 1.063 0.004 0.0031 1.063 0.0031
1708775373.7079 1.067 0.004 0.0016 1.067 0.0016
1708775373.7159 1.070 0.004 0.0031 1.070 0.0031
1708775373.7248 1.073 0.004 0.0047 1.073 0.0047
1708775373.7321 1.076 0.004 0.0047 1.076 0.0047
1708775373.7402 1.079 0.004 0.0047 1.079 0.0047
1708775373.7516 1.082 0.004 0.0047 1.082 0.0047
1708775373.7564 1.085 0.004 0.0031 1.085 0.0031
1708775373.7646 1.088 0.004 0.0031 1.088 0.0031
1708775373.7726 1.090 0.004 0.0062 1.090 0.0062
1708775373.7802 1.093 0.004 0.0078 1.093 0.0078
1708775373.7883 1.097 0.004 0.0093 1.097 0.0093
1708775373.7971 1.100 0.004 0.0062 1.100 0.0062
1708775373.8042 1.103 0.005 0.0047 1.103 0.0047
1708775373.8124 1.107 0.005 0.0062 1.107 0.0062
1708775373.8212 1.110 0.005 0.0093 1.110 0.0093
1708775373.8281 1.113 0.005 0.0078 1.113 0.0078
1708775373.8361 1.116 0.005 0.0062 1.116 0.0062
1708775373.8456 1.119 0.005 0.0093 1.119 0.0093
1708775373.8527 1.122 0.005 0.0124 1.122 0.0124
1708775373.8608 1.125 0.005 0.0109 1.125 0.0109
1708775373.8692 1.129 0.005 0.0078 1.129 0.0078
1708775373.8762 1.132 0.005 0.0062 1.132 0.0062
1708775373.8843 1.136 0.005 0.0078 1.136 0.0078
1708775373.8930 1.138 0.005 0.0093 1.138 0.0093
1708775373.9002 1.141 0.005 0.0078 1.141 0.0078
1708775373.9083 1.145 0.005 0.0062 1.145 0.0062
1708775373.9190 1.148 0.005 0.0078 1.148 0.0078
1708775373.9240 1.151 0.005 0.0078 1.151 0.0078
1708775373.9321 1.154 0.005 0.0078 1.154 0.0078
1708775373.9417 1.157 0.005 0.0078 1.157 0.0078
1708775373.9478 1.159 0.005 0.0078 1.159 0.0078
1708775373.9567 1.163 0.005 0.0078 1.163 0.0078
1708775373.9650 1.167 0.005 0.0078 1.167 0.0078
1708775373.9721 1.170 0.005 0.0078 1.170 0.0078
1708775373.9806 1.173 0.005 0.0062 1.173 0.0062
1708775373.9885 1.176 0.005 0.0047 1.176 0.0047
1708775373.9967 1.179 0.005 0.0031 1.179 0.0031
1708775374.0038 1.183 0.005 0.0031 1.183 0.0031
1708775374.0124 1.186 0.005 0.0047 1.186 0.0047
1708775374.0208 1.189 0.005 0.0047 1.189 0.0047
1708775374.0280 1.191 0.005 0.0016 1.191 0.0016
1708775374.0370 1.195 0.005 0.0016 1.195 0.0016
1708775374.0443 1.198 0.005 0.0047 1.198 0.0047
1708775374.0524 1.202 0.005 0.0047 1.202 0.0047
1708775374.0604 1.205 0.005 0.0031 1.205 0.0031
1708775374.0678 1.207 0.005 0.0031 1.207 0.0031
1708775374.0762 1.210 0.005 0.0047 1.210 0.0047
1708775374.0853 1.213 0.005 0.0047 1.213 0.0047
1708775374.0926 1.216 0.005 0.0047 1.216 0.0047
1708775374.1008 1.219 0.005 0.0031 1.219 0.0031
1708775374.1087 1.223 0.005 0.0047 1.223 0.0047
1708775374.1168 1.226 0.005 0.0062 1.226 0.0062
1708775374.1241 1.229 0.005 0.0047 1.229 0.0047
1708775374.1331 1.232 0.005 0.0031 1.232 0.0031
1708775374.1408 1.236 0.005 0.0047 1.236 0.0047
1708775374.1480 1.240 0.005 0.0047 1.240 0.0047
1708775374.1573 1.243 0.005 0.0031 1.243 0.0031
