% Pose without folding and reset (log_20240224_133720.082/log_pose_abs.txt)
% 1 	Time (sec)
% 2,3 	Position x,y (m)
% 4 	heading (rad)
% 5 	Driven distance (m) - signed
% 6 	Turned angle (rad) - signed
1708778240.9353 0.000 0.000 0.0000 0.000 0.0000
1708778240.9431 0.000 0.000 0.0000 0.000 0.0000
1708778240.9507 0.000 0.000 0.0000 0.000 0.0000
1708778240.9582 0.000 0.000 0.0000 0.000 0.0000
1708778240.9662 0.000 0.000 0.0000 0.000 0.0000
1708778240.9742 0.000 0.000 0.0000 0.000 0.0000
1708778240.9828 0.000 0.000 0.0000 0.000 0.0000
1708778240.9915 0.000 0.000 0.0000 0.000 0.0000
1708778240.9982 0.000 0.000 0.0000 0.000 0.0000
1708778241.0068 0.000 0.000 0.0000 0.000 0.0000
1708778241.0148 0.000 0.000 0.0000 0.000 0.0000
1708778241.0221 0.000 0.000 0.0000 0.000 0.0000
1708778241.0304 0.000 0.000 0.0000 0.000 0.0000
1708778241.0388 0.000 0.000 0.0000 0.000 0.0000
1708778241.0469 0.000 0.000 0.0000 0.000 0.0000
1708778241.0547 0.000 0.000 0.0000 0.000 0.0000
1708778241.0633 0.000 0.000 0.0000 0.000 0.0000
1708778241.0702 0.000 0.000 0.0000 0.000 0.0000
1708778241.0810 0.000 0.000 0.0031 0.000 0.0031
1708778241.0872 0.002 0.000 0.0000 0.002 0.0000
1708778241.0941 0.003 0.000 -0.0016 0.003 -0.0016
1708778241.1059 0.005 -0.000 -0.0016 0.005 -0.0016
1708778241.1109 0.007 -0.000 0.0000 0.007 0.0000
1708778241.1220 0.009 -0.000 0.0000 0.009 0.0000
1708778241.1266 0.011 -0.000 0.0000 0.011 0.0000
1708778241.1350 0.014 -0.000 0.0000 0.014 0.0000
1708778241.1430 0.017 -0.000 0.0000 0.017 0.0000
1708778241.1538 0.020 -0.000 0.0000 0.020 0.0000
1708778241.1588 0.023 0.000 0.0016 0.023 0.0016
1708778241.1706 0.026 0.000 0.0016 0.026 0.0016
1708778241.1752 0.029 0.000 0.0000 0.029 0.0000
1708778241.1822 0.032 0.000 -0.0016 0.032 -0.0016
1708778241.1914 0.036 0.000 0.0016 0.036 0.0016
1708778241.1986 0.040 0.000 0.0016 0.040 0.0016
1708778241.2069 0.044 0.000 0.0000 0.044 0.0000
1708778241.2142 0.048 0.000 0.0000 0.048 0.0000
1708778241.2226 0.053 0.000 0.0016 0.053 0.0016
1708778241.2311 0.057 0.000 -0.0000 0.057 -0.0000
1708778241.2391 0.061 0.000 -0.0000 0.061 -0.0000
1708778241.2465 0.066 0.000 -0.0000 0.066 -0.0000
1708778241.2551 0.070 0.000 -0.0016 0.070 -0.0016
1708778241.2622 0.074 0.000 -0.0031 0.074 -0.0031
1708778241.2702 0.078 -0.000 -0.0016 0.078 -0.0016
1708778241.2783 0.083 0.000 0.0031 0.083 0.0031
1708778241.2865 0.087 0.000 0.0031 0.087 0.0031
1708778241.2949 0.091 0.000 -0.0016 0.091 -0.0016
1708778241.3030 0.095 0.000 -0.0031 0.095 -0.0031
1708778241.3099 0.100 0.000 -0.0000 0.100 -0.0000
1708778241.3240 0.104 0.000 0.0047 0.104 0.0047
1708778241.3314 0.107 0.000 0.0047 0.107 0.0047
1708778241.3343 0.111 0.000 0.0016 0.111 0.0016
1708778241.3430 0.116 0.000 -0.0016 0.116 -0.0016
1708778241.3503 0.118 0.000 -0.0016 0.118 -0.0016
1708778241.3590 0.120 0.000 0.0016 0.120 0.0016
1708778241.3687 0.124 0.000 0.0016 0.124 0.0016
1708778241.3776 0.129 0.000 0.0016 0.129 0.0016
1708778241.3833 0.134 0.000 0.0016 0.134 0.0016
1708778241.3912 0.138 0.000 0.0016 0.138 0.0016
1708778241.3985 0.140 0.000 0.0047 0.140 0.0047
1708778241.4070 0.144 0.000 0.0047 0.144 0.0047
1708778241.4149 0.148 0.000 0.0031 0.148 0.0031
1708778241.4223 0.153 0.000 0.0031 0.153 0.0031
1708778241.4307 0.156 0.000 0.0047 0.156 0.0047
1708778241.4381 0.159 0.000 0.0062 0.159 0.0062
1708778241.4469 0.163 0.000 0.0062 0.163 0.0062
1708778241.4540 0.167 0.000 0.0047 0.167 0.0047
1708778241.4628 0.171 0.000 0.0047 0.171 0.0047
1708778241.4711 0.175 0.000 0.0031 0.175 0.0031
1708778241.4784 0.178 0.000 0.0031 0.178 0.0031
1708778241.4861 0.182 0.000 0.0047 0.182 0.0047
1708778241.4948 0.186 0.000 0.0031 0.186 0.0031
1708778241.5019 0.190 0.000 0.0016 0.190 0.0016
1708778241.5108 0.194 0.000 0.0031 0.194 0.0031
1708778241.5191 0.198 0.000 0.0031 0.198 0.0031
1708778241.5263 0.202 0.000 0.0031 0.202 0.0031
1708778241.5351 0.206 0.000 0.0031 0.206 0.0031
1708778241.5423 0.210 0.000 0.0016 0.210 0.0016
1708778241.5500 0.213 0.000 0.0016 0.213 0.0016
1708778241.5633 0.217 0.000 0.0016 0.217 0.0016
1708778241.5674 0.222 0.000 0.0016 0.222 0.0016
1708778241.5746 0.226 0.000 0.0016 0.226 0.0016
1708778241.5822 0.228 0.000 0.0031 0.228 0.0031
1708778241.5916 0.231 0.000 0.0016 0.231 0.0016
1708778241.5989 0.236 0.000 0.0016 0.236 0.0016
1708778241.6059 0.241 0.000 0.0016 0.241 0.0016
1708778241.6143 0.245 0.000 0.0016 0.245 0.0016
1708778241.6219 0.247 0.000 0.0031 0.247 0.0031
1708778241.6300 0.251 0.000 0.0016 0.251 0.0016
1708778241.6387 0.256 0.000 -0.0000 0.256 -0.0000
1708778241.6460 0.260 0.000 -0.0016 0.260 -0.0016
1708778241.6545 0.263 0.000 -0.0016 0.263 -0.0016
1708778241.6631 0.266 0.000 -0.0000 0.266 -0.0000
1708778241.6703 0.270 0.000 0.0016 0.270 0.0016
1708778241.6785 0.275 0.000 -0.0000 0.275 -0.0000
1708778241.6870 0.278 0.000 0.0016 0.278 0.0016
1708778241.6940 0.282 0.000 0.0047 0.282 0.0047
1708778241.7020 0.286 0.000 0.0031 0.286 0.0031
1708778241.7104 0.289 0.000 0.0016 0.289 0.0016
1708778241.7186 0.293 0.000 0.0031 0.293 0.0031
1708778241.7260 0.297 0.000 0.0016 0.297 0.0016
1708778241.7347 0.301 0.000 0.0031 0.301 0.0031
1708778241.7428 0.305 0.000 0.0016 0.305 0.0016
1708778241.7506 0.309 0.000 -0.0000 0.309 -0.0000
1708778241.7589 0.313 0.000 0.0016 0.313 0.0016
1708778241.7660 0.317 0.000 0.0031 0.317 0.0031
1708778241.7749 0.321 0.001 0.0016 0.321 0.0016
1708778241.7832 0.325 0.001 -0.0016 0.325 -0.0016
1708778241.7911 0.329 0.000 -0.0016 0.329 -0.0016
1708778241.7980 0.334 0.000 -0.0016 0.334 -0.0016
1708778241.8072 0.338 0.000 -0.0000 0.338 -0.0000
1708778241.8146 0.341 0.000 0.0031 0.341 0.0031
1708778241.8225 0.345 0.001 0.0031 0.345 0.0031
1708778241.8308 0.349 0.001 -0.0016 0.349 -0.0016
1708778241.8381 0.353 0.001 -0.0031 0.353 -0.0031
1708778241.8467 0.357 0.000 -0.0000 0.357 -0.0000
1708778241.8549 0.361 0.001 0.0031 0.361 0.0031
1708778241.8626 0.365 0.001 0.0031 0.365 0.0031
1708778241.8705 0.369 0.001 -0.0016 0.369 -0.0016
1708778241.8791 0.373 0.001 -0.0031 0.373 -0.0031
1708778241.8863 0.377 0.001 0.0016 0.377 0.0016
1708778241.8950 0.381 0.001 0.0047 0.381 0.0047
1708778241.9022 0.385 0.001 -0.0000 0.385 -0.0000
1708778241.9107 0.389 0.001 -0.0047 0.389 -0.0047
1708778241.9187 0.393 0.001 -0.0016 0.393 -0.0016
1708778241.9269 0.397 0.001 0.0031 0.397 0.0031
1708778241.9340 0.401 0.001 0.0016 0.401 0.0016
1708778241.9424 0.405 0.001 -0.0031 0.405 -0.0031
1708778241.9508 0.409 0.001 -0.0031 0.409 -0.0031
1708778241.9581 0.413 0.000 -0.0000 0.413 -0.0000
1708778241.9661 0.417 0.000 -0.0016 0.417 -0.0016
1708778241.9745 0.421 0.000 -0.0031 0.421 -0.0031
1708778241.9823 0.425 0.000 -0.0047 0.425 -0.0047
1708778241.9907 0.429 0.000 -0.0031 0.429 -0.0031
1708778241.9991 0.433 0.000 -0.0000 0.433 -0.0000
1708778242.0063 0.437 0.000 -0.0016 0.437 -0.0016
1708778242.0143 0.441 0.000 -0.0031 0.441 -0.0031
1708778242.0226 0.445 0.000 -0.0016 0.445 -0.0016
1708778242.0309 0.448 0.000 0.0016 0.448 0.0016
1708778242.0389 0.453 0.000 0.0016 0.453 0.0016
1708778242.0472 0.457 0.000 -0.0016 0.457 -0.0016
1708778242.0549 0.461 0.000 -0.0031 0.461 -0.0031
1708778242.0627 0.465 0.000 -0.0000 0.465 -0.0000
1708778242.0712 0.469 0.000 0.0016 0.469 0.0016
1708778242.0783 0.473 0.000 -0.0016 0.473 -0.0016
1708778242.0863 0.477 0.000 -0.0047 0.477 -0.0047
1708778242.0943 0.481 0.000 -0.0016 0.481 -0.0016
1708778242.1026 0.484 0.000 0.0031 0.484 0.0031
1708778242.1105 0.488 0.000 0.0016 0.488 0.0016
1708778242.1190 0.493 0.000 -0.0000 0.493 -0.0000
1708778242.1433 0.498 0.000 -0.0000 0.498 -0.0000
1708778242.1459 0.501 0.000 0.0016 0.501 0.0016
1708778242.1487 0.505 0.000 0.0031 0.505 0.0031
1708778242.1506 0.508 0.000 0.0062 0.508 0.0062
1708778242.1588 0.511 0.000 0.0062 0.511 0.0062
1708778242.1668 0.514 0.000 0.0062 0.514 0.0062
1708778242.1742 0.517 0.000 0.0062 0.517 0.0062
1708778242.1824 0.519 0.001 0.0062 0.519 0.0062
1708778242.1918 0.521 0.001 0.0047 0.521 0.0047
1708778242.1984 0.524 0.001 -0.0016 0.524 -0.0016
1708778242.2060 0.527 0.001 -0.0062 0.527 -0.0062
1708778242.2144 0.530 0.000 -0.0047 0.530 -0.0047
1708778242.2219 0.533 0.000 -0.0047 0.533 -0.0047
1708778242.2306 0.536 0.000 -0.0062 0.536 -0.0062
1708778242.2396 0.539 0.000 -0.0109 0.539 -0.0109
1708778242.2461 0.542 0.000 -0.0109 0.542 -0.0109
1708778242.2556 0.545 0.000 -0.0078 0.545 -0.0078
1708778242.2630 0.548 0.000 -0.0109 0.548 -0.0109
1708778242.2703 0.551 0.000 -0.0109 0.551 -0.0109
1708778242.2786 0.555 0.000 -0.0124 0.555 -0.0124
1708778242.2870 0.558 0.000 -0.0109 0.558 -0.0109
1708778242.2939 0.561 0.000 -0.0124 0.561 -0.0124
1708778242.3027 0.564 0.000 -0.0124 0.564 -0.0124
1708778242.3111 0.567 0.000 -0.0109 0.567 -0.0109
1708778242.3188 0.571 0.000 -0.0093 0.571 -0.0093
1708778242.3266 0.574 0.000 -0.0109 0.574 -0.0109
1708778242.3349 0.578 0.000 -0.0093 0.578 -0.0093
1708778242.3430 0.583 -0.000 -0.0078 0.583 -0.0078
1708778242.3499 0.587 -0.000 -0.0078 0.587 -0.0078
1708778242.3598 0.590 -0.000 -0.0078 0.590 -0.0078
1708778242.3662 0.593 -0.000 -0.0062 0.593 -0.0062
1708778242.3741 0.597 -0.000 -0.0047 0.597 -0.0047
1708778242.3832 0.601 -0.000 -0.0078 0.601 -0.0078
1708778242.3958 0.606 -0.000 -0.0078 0.606 -0.0078
1708778242.4033 0.610 -0.000 -0.0078 0.610 -0.0078
1708778242.4084 0.615 -0.000 -0.0047 0.615 -0.0047
1708778242.4141 0.619 -0.000 -0.0047 0.619 -0.0047
1708778242.4229 0.621 -0.000 -0.0047 0.621 -0.0047
1708778242.4314 0.624 -0.000 -0.0031 0.624 -0.0031
1708778242.4395 0.628 -0.000 -0.0000 0.628 -0.0000
1708778242.4476 0.633 -0.000 -0.0000 0.633 -0.0000
1708778242.4559 0.637 -0.000 -0.0000 0.637 -0.0000
1708778242.4624 0.641 -0.000 0.0016 0.641 0.0016
1708778242.4703 0.644 -0.000 0.0016 0.644 0.0016
1708778242.4787 0.648 -0.000 0.0016 0.648 0.0016
1708778242.4873 0.653 -0.000 0.0016 0.653 0.0016
1708778242.4948 0.657 -0.000 -0.0016 0.657 -0.0016
1708778242.5031 0.661 -0.000 -0.0000 0.661 -0.0000
1708778242.5104 0.664 -0.000 -0.0000 0.664 -0.0000
1708778242.5189 0.667 -0.000 0.0016 0.667 0.0016
1708778242.5270 0.672 -0.000 -0.0000 0.672 -0.0000
1708778242.5343 0.676 -0.000 -0.0016 0.676 -0.0016
1708778242.5429 0.680 -0.000 -0.0031 0.680 -0.0031
1708778242.5512 0.683 -0.000 -0.0016 0.683 -0.0016
1708778242.5585 0.687 -0.000 0.0016 0.687 0.0016
1708778242.5665 0.691 -0.000 -0.0016 0.691 -0.0016
1708778242.5746 0.695 -0.000 -0.0031 0.695 -0.0031
1708778242.5819 0.699 -0.000 -0.0016 0.699 -0.0016
1708778242.5906 0.703 -0.000 -0.0000 0.703 -0.0000
1708778242.5990 0.707 -0.000 -0.0016 0.707 -0.0016
1708778242.6063 0.711 -0.000 -0.0031 0.711 -0.0031
1708778242.6152 0.715 -0.000 -0.0016 0.715 -0.0016
1708778242.6227 0.719 -0.000 0.0016 0.719 0.0016
1708778242.6299 0.723 -0.000 0.0016 0.723 0.0016
1708778242.6384 0.727 -0.000 -0.0031 0.727 -0.0031
1708778242.6465 0.730 -0.000 -0.0047 0.730 -0.0047
1708778242.6539 0.734 -0.000 -0.0000 0.734 -0.0000
1708778242.6620 0.739 -0.000 0.0031 0.739 0.0031
1708778242.6704 0.743 -0.000 0.0016 0.743 0.0016
1708778242.6780 0.746 -0.000 -0.0031 0.746 -0.0031
1708778242.6860 0.750 -0.000 -0.0016 0.750 -0.0016
1708778242.6951 0.754 -0.000 -0.0000 0.754 -0.0000
1708778242.7024 0.759 -0.000 0.0016 0.759 0.0016
1708778242.7102 0.763 -0.000 -0.0031 0.763 -0.0031
1708778242.7186 0.767 -0.000 0.0016 0.767 0.0016
1708778242.7270 0.771 -0.000 0.0047 0.771 0.0047
1708778242.7349 0.774 -0.000 0.0031 0.774 0.0031
1708778242.7428 0.779 -0.000 0.0016 0.779 0.0016
1708778242.7501 0.783 -0.000 -0.0000 0.783 -0.0000
1708778242.7581 0.787 -0.000 0.0016 0.787 0.0016
1708778242.7664 0.791 -0.000 0.0016 0.791 0.0016
1708778242.7748 0.795 -0.000 0.0016 0.795 0.0016
1708778242.7827 0.799 -0.000 0.0016 0.799 0.0016
1708778242.7911 0.804 -0.000 -0.0000 0.804 -0.0000
1708778242.7983 0.808 -0.000 -0.0000 0.808 -0.0000
1708778242.8064 0.811 -0.000 0.0016 0.811 0.0016
1708778242.8147 0.815 -0.000 -0.0000 0.815 -0.0000
1708778242.8224 0.819 -0.000 -0.0000 0.819 -0.0000
1708778242.8305 0.823 -0.000 -0.0000 0.823 -0.0000
1708778242.8389 0.827 -0.000 -0.0016 0.827 -0.0016
1708778242.8467 0.831 -0.000 -0.0016 0.831 -0.0016
1708778242.8546 0.835 -0.000 -0.0000 0.835 -0.0000
1708778242.8629 0.839 -0.000 -0.0000 0.839 -0.0000
1708778242.8701 0.844 -0.000 -0.0016 0.844 -0.0016
1708778242.8780 0.847 -0.000 -0.0016 0.847 -0.0016
1708778242.8862 0.851 -0.000 -0.0000 0.851 -0.0000
1708778242.8942 0.855 -0.000 0.0031 0.855 0.0031
1708778242.9025 0.859 -0.000 0.0016 0.859 0.0016
1708778242.9108 0.863 -0.000 -0.0000 0.863 -0.0000
1708778242.9180 0.867 -0.000 0.0016 0.867 0.0016
1708778242.9264 0.871 -0.000 0.0047 0.871 0.0047
1708778242.9343 0.875 -0.000 0.0031 0.875 0.0031
1708778242.9422 0.879 -0.000 0.0016 0.879 0.0016
1708778242.9501 0.883 -0.000 0.0031 0.883 0.0031
1708778242.9589 0.887 -0.000 0.0047 0.887 0.0047
1708778242.9661 0.890 -0.000 0.0016 0.890 0.0016
1708778242.9754 0.895 -0.000 -0.0016 0.895 -0.0016
1708778242.9828 0.899 -0.000 0.0016 0.899 0.0016
1708778242.9908 0.903 -0.000 0.0031 0.903 0.0031
1708778242.9986 0.907 -0.000 0.0016 0.907 0.0016
1708778243.0070 0.910 -0.000 -0.0016 0.910 -0.0016
1708778243.0144 0.915 -0.000 -0.0000 0.915 -0.0000
1708778243.0222 0.919 -0.000 0.0016 0.919 0.0016
1708778243.0306 0.923 -0.000 0.0031 0.923 0.0031
1708778243.0379 0.926 -0.000 0.0031 0.926 0.0031
1708778243.0466 0.930 -0.000 0.0016 0.930 0.0016
1708778243.0548 0.935 -0.000 -0.0016 0.935 -0.0016
1708778243.0620 0.939 -0.000 -0.0000 0.939 -0.0000
1708778243.0709 0.943 -0.000 0.0016 0.943 0.0016
1708778243.0792 0.946 -0.000 0.0031 0.946 0.0031
1708778243.0865 0.950 -0.000 0.0016 0.950 0.0016
1708778243.0940 0.955 -0.000 -0.0000 0.955 -0.0000
1708778243.1028 0.959 -0.000 -0.0016 0.959 -0.0016
1708778243.1100 0.962 -0.000 0.0031 0.962 0.0031
1708778243.1179 0.966 -0.000 0.0031 0.966 0.0031
1708778243.1263 0.970 -0.000 -0.0016 0.970 -0.0016
1708778243.1348 0.974 -0.000 -0.0031 0.974 -0.0031
1708778243.1428 0.978 -0.000 -0.0016 0.978 -0.0016
1708778243.1512 0.982 -0.000 0.0016 0.982 0.0016
1708778243.1583 0.987 -0.000 -0.0000 0.987 -0.0000
1708778243.1662 0.991 -0.000 -0.0047 0.991 -0.0047
1708778243.1746 0.994 -0.000 -0.0031 0.994 -0.0031
1708778243.1819 0.998 -0.000 -0.0000 0.998 -0.0000
1708778243.1916 1.002 -0.000 0.0016 1.002 0.0016
1708778243.1984 1.006 -0.000 -0.0016 1.006 -0.0016
1708778243.2068 1.010 -0.000 -0.0000 1.010 -0.0000
1708778243.2148 1.013 -0.000 -0.0000 1.013 -0.0000
1708778243.2232 1.017 -0.000 -0.0016 1.017 -0.0016
1708778243.2308 1.022 -0.000 0.0016 1.022 0.0016
1708778243.2389 1.026 -0.000 0.0016 1.026 0.0016
1708778243.2472 1.029 -0.000 -0.0016 1.029 -0.0016
1708778243.2540 1.033 -0.000 -0.0062 1.033 -0.0062
1708778243.2623 1.037 -0.000 -0.0047 1.037 -0.0047
1708778243.2709 1.042 -0.000 -0.0016 1.042 -0.0016
1708778243.2783 1.045 -0.000 -0.0016 1.045 -0.0016
1708778243.2865 1.050 -0.000 -0.0047 1.050 -0.0047
1708778243.2946 1.054 -0.000 -0.0093 1.054 -0.0093
1708778243.3026 1.057 -0.000 -0.0078 1.057 -0.0078
1708778243.3107 1.061 -0.000 -0.0031 1.061 -0.0031
1708778243.3186 1.066 -0.000 -0.0031 1.066 -0.0031
1708778243.3260 1.070 -0.000 -0.0078 1.070 -0.0078
1708778243.3350 1.074 -0.000 -0.0109 1.074 -0.0109
1708778243.3431 1.077 -0.000 -0.0093 1.077 -0.0093
1708778243.3505 1.081 -0.000 -0.0062 1.081 -0.0062
1708778243.3587 1.086 -0.000 -0.0062 1.086 -0.0062
1708778243.3673 1.090 -0.001 -0.0093 1.090 -0.0093
1708778243.3747 1.093 -0.001 -0.0124 1.093 -0.0124
1708778243.3821 1.097 -0.001 -0.0109 1.097 -0.0109
1708778243.3914 1.102 -0.001 -0.0078 1.102 -0.0078
1708778243.3988 1.106 -0.001 -0.0062 1.106 -0.0062
1708778243.4069 1.109 -0.001 -0.0093 1.109 -0.0093
1708778243.4143 1.113 -0.001 -0.0124 1.113 -0.0124
1708778243.4221 1.117 -0.001 -0.0109 1.117 -0.0109
1708778243.4327 1.121 -0.001 -0.0109 1.121 -0.0109
1708778243.4383 1.125 -0.001 -0.0109 1.125 -0.0109
1708778243.4460 1.129 -0.001 -0.0109 1.129 -0.0109
1708778243.4549 1.133 -0.001 -0.0109 1.133 -0.0109
1708778243.4631 1.136 -0.001 -0.0093 1.136 -0.0093
1708778243.4707 1.140 -0.001 -0.0109 1.140 -0.0109
1708778243.4787 1.145 -0.001 -0.0109 1.145 -0.0109
1708778243.4871 1.149 -0.001 -0.0109 1.149 -0.0109
1708778243.4945 1.152 -0.001 -0.0109 1.152 -0.0109
1708778243.5028 1.156 -0.001 -0.0093 1.156 -0.0093
1708778243.5111 1.160 -0.001 -0.0109 1.160 -0.0109
1708778243.5182 1.165 -0.001 -0.0140 1.165 -0.0140
1708778243.5261 1.168 -0.001 -0.0140 1.168 -0.0140
1708778243.5344 1.172 -0.001 -0.0124 1.172 -0.0124
1708778243.5425 1.176 -0.001 -0.0109 1.176 -0.0109
1708778243.5508 1.180 -0.001 -0.0140 1.180 -0.0140
1708778243.5584 1.184 -0.002 -0.0140 1.184 -0.0140
1708778243.5666 1.188 -0.002 -0.0109 1.188 -0.0109
1708778243.5749 1.192 -0.002 -0.0093 1.192 -0.0093
1708778243.5835 1.196 -0.002 -0.0109 1.196 -0.0109
1708778243.5906 1.200 -0.002 -0.0109 1.200 -0.0109
1708778243.5987 1.205 -0.002 -0.0093 1.205 -0.0093
1708778243.6075 1.208 -0.002 -0.0093 1.208 -0.0093
1708778243.6140 1.212 -0.002 -0.0109 1.212 -0.0109
1708778243.6227 1.216 -0.002 -0.0093 1.216 -0.0093
1708778243.6312 1.220 -0.002 -0.0078 1.220 -0.0078
1708778243.6386 1.224 -0.002 -0.0093 1.224 -0.0093
1708778243.6464 1.228 -0.002 -0.0109 1.228 -0.0109
1708778243.6549 1.232 -0.002 -0.0093 1.232 -0.0093
1708778243.6623 1.236 -0.002 -0.0062 1.236 -0.0062
1708778243.6704 1.240 -0.002 -0.0062 1.240 -0.0062
1708778243.6790 1.244 -0.002 -0.0093 1.244 -0.0093
1708778243.6864 1.248 -0.002 -0.0093 1.248 -0.0093
1708778243.6953 1.252 -0.002 -0.0093 1.252 -0.0093
1708778243.7026 1.256 -0.002 -0.0078 1.256 -0.0078
1708778243.7102 1.260 -0.002 -0.0093 1.260 -0.0093
1708778243.7182 1.264 -0.002 -0.0109 1.264 -0.0109
1708778243.7263 1.267 -0.002 -0.0093 1.267 -0.0093
1708778243.7349 1.271 -0.002 -0.0078 1.271 -0.0078
1708778243.7426 1.276 -0.002 -0.0078 1.276 -0.0078
1708778243.7512 1.280 -0.002 -0.0109 1.280 -0.0109
1708778243.7587 1.284 -0.002 -0.0093 1.284 -0.0093
1708778243.7667 1.287 -0.003 -0.0078 1.287 -0.0078
1708778243.7751 1.291 -0.003 -0.0078 1.291 -0.0078
1708778243.7826 1.296 -0.003 -0.0109 1.296 -0.0109
1708778243.7909 1.300 -0.003 -0.0109 1.300 -0.0109
1708778243.7983 1.303 -0.003 -0.0078 1.303 -0.0078
1708778243.8060 1.307 -0.003 -0.0078 1.307 -0.0078
1708778243.8204 1.311 -0.003 -0.0093 1.312 -0.0093
1708778243.8235 1.316 -0.003 -0.0140 1.316 -0.0140
1708778243.8319 1.320 -0.003 -0.0155 1.320 -0.0155
1708778243.8388 1.322 -0.003 -0.0155 1.322 -0.0155
1708778243.8468 1.325 -0.003 -0.0171 1.325 -0.0171
1708778243.8549 1.329 -0.003 -0.0186 1.329 -0.0186
1708778243.8623 1.334 -0.003 -0.0155 1.334 -0.0155
1708778243.8709 1.338 -0.003 -0.0124 1.338 -0.0124
1708778243.8782 1.341 -0.003 -0.0109 1.341 -0.0109
1708778243.8864 1.344 -0.003 -0.0093 1.344 -0.0093
1708778243.8947 1.348 -0.003 -0.0093 1.348 -0.0093
1708778243.9023 1.352 -0.003 -0.0109 1.352 -0.0109
1708778243.9104 1.356 -0.003 -0.0124 1.356 -0.0124
1708778243.9190 1.359 -0.003 -0.0093 1.359 -0.0093
1708778243.9262 1.363 -0.003 -0.0062 1.363 -0.0062
1708778243.9339 1.367 -0.003 -0.0062 1.367 -0.0062
1708778243.9431 1.371 -0.003 -0.0078 1.371 -0.0078
1708778243.9504 1.375 -0.003 -0.0078 1.375 -0.0078
1708778243.9584 1.379 -0.003 -0.0047 1.379 -0.0047
1708778243.9667 1.383 -0.004 -0.0047 1.383 -0.0047
1708778243.9739 1.387 -0.004 -0.0047 1.387 -0.0047
1708778243.9823 1.391 -0.004 -0.0078 1.391 -0.0078
1708778243.9914 1.394 -0.004 -0.0062 1.394 -0.0062
1708778243.9986 1.398 -0.004 -0.0047 1.398 -0.0047
1708778244.0066 1.402 -0.004 -0.0031 1.402 -0.0031
1708778244.0155 1.406 -0.004 -0.0047 1.406 -0.0047
1708778244.0245 1.409 -0.004 -0.0093 1.409 -0.0093
1708778244.0301 1.414 -0.004 -0.0093 1.414 -0.0093
1708778244.0384 1.418 -0.004 -0.0093 1.418 -0.0093
1708778244.0466 1.421 -0.004 -0.0078 1.421 -0.0078
1708778244.0554 1.425 -0.004 -0.0062 1.425 -0.0062
1708778244.0632 1.430 -0.004 -0.0016 1.430 -0.0016
1708778244.0705 1.435 -0.004 -0.0062 1.435 -0.0062
1708778244.0786 1.438 -0.004 -0.0078 1.438 -0.0078
1708778244.0869 1.442 -0.004 -0.0124 1.442 -0.0124
1708778244.0950 1.446 -0.004 -0.0109 1.446 -0.0109
1708778244.1027 1.450 -0.004 -0.0109 1.450 -0.0109
