% Pose without folding and reset (log_20240219_145442.112/log_pose_abs.txt)
% 1 	Time (sec)
% 2,3 	Position x,y (m)
% 4 	heading (rad)
% 5 	Driven distance (m) - signed
% 6 	Turned angle (rad) - signed
1708350882.5102 0.000 0.000 0.0000 0.000 0.0000
1708350882.5178 0.000 0.000 0.0000 0.000 0.0000
1708350882.5261 -0.000 -0.000 0.0016 -0.000 0.0016
1708350882.5336 -0.000 -0.000 0.0016 -0.000 0.0016
1708350882.5416 -0.000 -0.000 0.0016 -0.000 0.0016
1708350882.5497 -0.000 -0.000 0.0016 -0.000 0.0016
1708350882.5572 -0.000 -0.000 0.0016 -0.000 0.0016
1708350882.5658 -0.000 -0.000 0.0016 -0.000 0.0016
1708350882.5736 -0.000 -0.000 0.0016 -0.000 0.0016
1708350882.5813 -0.000 -0.000 0.0016 -0.000 0.0016
1708350882.5894 -0.000 -0.000 0.0016 -0.000 0.0016
1708350882.5978 -0.000 -0.000 0.0016 -0.000 0.0016
1708350882.6055 -0.000 -0.000 0.0016 -0.000 0.0016
1708350882.6137 -0.000 -0.000 0.0016 -0.000 0.0016
1708350882.6213 -0.000 -0.000 0.0016 -0.000 0.0016
1708350882.6288 0.000 0.000 0.0000 0.000 0.0000
1708350882.6368 0.001 0.000 0.0047 0.001 0.0047
1708350882.6450 0.002 0.000 0.0047 0.002 0.0047
1708350882.6528 0.003 0.000 0.0000 0.003 0.0000
1708350882.6619 0.004 0.000 0.0016 0.004 0.0016
1708350882.6698 0.005 0.000 0.0031 0.005 0.0031
1708350882.6774 0.006 0.000 0.0000 0.006 0.0000
1708350882.6856 0.008 0.000 0.0016 0.008 0.0016
1708350882.6938 0.009 0.000 0.0016 0.009 0.0016
1708350882.7018 0.011 0.000 0.0000 0.011 0.0000
1708350882.7089 0.013 0.000 0.0016 0.013 0.0016
1708350882.7179 0.015 0.000 0.0000 0.015 0.0000
1708350882.7286 0.017 0.000 -0.0016 0.017 -0.0016
1708350882.7330 0.020 0.000 -0.0000 0.020 -0.0000
1708350882.7415 0.022 0.000 -0.0016 0.022 -0.0016
1708350882.7505 0.023 0.000 -0.0000 0.023 -0.0000
1708350882.7593 0.025 0.000 -0.0016 0.025 -0.0016
1708350882.7663 0.028 0.000 -0.0016 0.028 -0.0016
1708350882.7729 0.032 0.000 -0.0000 0.032 -0.0000
1708350882.7814 0.034 0.000 0.0016 0.034 0.0016
1708350882.7896 0.035 0.000 -0.0000 0.035 -0.0000
1708350882.7970 0.037 0.000 -0.0000 0.037 -0.0000
1708350882.8051 0.040 0.000 -0.0000 0.040 -0.0000
1708350882.8132 0.043 0.000 -0.0016 0.043 -0.0016
1708350882.8210 0.045 0.000 -0.0016 0.045 -0.0016
1708350882.8293 0.047 0.000 -0.0016 0.047 -0.0016
1708350882.8370 0.049 0.000 -0.0000 0.049 -0.0000
1708350882.8457 0.052 -0.000 -0.0031 0.052 -0.0031
1708350882.8532 0.055 -0.000 -0.0047 0.055 -0.0047
1708350882.8610 0.057 -0.000 -0.0031 0.057 -0.0031
1708350882.8696 0.059 -0.000 -0.0031 0.059 -0.0031
1708350882.8769 0.061 -0.000 -0.0031 0.061 -0.0031
1708350882.8857 0.065 -0.000 -0.0031 0.065 -0.0031
1708350882.8928 0.067 -0.000 -0.0047 0.067 -0.0047
1708350882.9014 0.069 -0.000 -0.0031 0.069 -0.0031
1708350882.9091 0.071 -0.000 -0.0031 0.071 -0.0031
1708350882.9169 0.074 -0.000 -0.0016 0.074 -0.0016
1708350882.9255 0.076 -0.000 -0.0016 0.076 -0.0016
1708350882.9334 0.078 -0.000 -0.0031 0.078 -0.0031
1708350882.9416 0.081 -0.000 0.0000 0.081 0.0000
1708350882.9492 0.084 -0.000 0.0016 0.084 0.0016
1708350882.9578 0.086 -0.000 -0.0016 0.086 -0.0016
1708350882.9659 0.088 -0.000 -0.0031 0.088 -0.0031
1708350882.9734 0.090 -0.000 -0.0031 0.090 -0.0031
1708350882.9809 0.093 -0.000 -0.0000 0.093 -0.0000
1708350882.9895 0.096 -0.000 -0.0000 0.096 -0.0000
1708350882.9970 0.098 -0.000 -0.0000 0.098 -0.0000
1708350883.0058 0.100 -0.000 -0.0000 0.100 -0.0000
1708350883.0131 0.102 -0.000 -0.0016 0.102 -0.0016
1708350883.0213 0.105 -0.000 -0.0000 0.105 -0.0000
1708350883.0298 0.108 -0.000 0.0016 0.108 0.0016
1708350883.0370 0.110 -0.000 0.0031 0.110 0.0031
1708350883.0450 0.112 -0.000 -0.0000 0.112 -0.0000
1708350883.0537 0.114 -0.000 -0.0016 0.114 -0.0016
1708350883.0615 0.117 -0.000 -0.0000 0.117 -0.0000
1708350883.0700 0.120 -0.000 0.0031 0.120 0.0031
1708350883.0774 0.122 -0.000 0.0016 0.122 0.0016
1708350883.0857 0.124 -0.000 -0.0031 0.124 -0.0031
1708350883.0933 0.126 -0.000 -0.0031 0.126 -0.0031
1708350883.1009 0.129 -0.000 0.0016 0.129 0.0016
1708350883.1090 0.132 -0.000 0.0031 0.132 0.0031
1708350883.1178 0.134 -0.000 -0.0000 0.134 -0.0000
1708350883.1257 0.136 -0.000 -0.0016 0.136 -0.0016
1708350883.1338 0.138 -0.000 -0.0016 0.138 -0.0016
1708350883.1442 0.141 -0.000 -0.0000 0.141 -0.0000
1708350883.1494 0.144 -0.000 -0.0000 0.144 -0.0000
1708350883.1575 0.147 -0.000 -0.0016 0.147 -0.0016
1708350883.1660 0.148 -0.000 -0.0047 0.148 -0.0047
1708350883.1739 0.150 -0.000 -0.0016 0.150 -0.0016
1708350883.1815 0.152 -0.000 0.0016 0.152 0.0016
1708350883.1941 0.156 -0.000 0.0016 0.156 0.0016
1708350883.1983 0.159 -0.000 0.0016 0.159 0.0016
1708350883.2055 0.161 -0.000 -0.0000 0.161 -0.0000
1708350883.2130 0.162 -0.000 -0.0016 0.162 -0.0016
1708350883.2218 0.163 -0.000 0.0031 0.163 0.0031
1708350883.2293 0.166 -0.000 0.0062 0.166 0.0062
1708350883.2375 0.169 -0.000 0.0062 0.169 0.0062
1708350883.2465 0.172 -0.000 0.0031 0.172 0.0031
1708350883.2533 0.173 -0.000 0.0016 0.173 0.0016
1708350883.2616 0.175 -0.000 0.0016 0.175 0.0016
1708350883.2697 0.178 -0.000 0.0031 0.178 0.0031
1708350883.2768 0.181 -0.000 0.0047 0.181 0.0047
1708350883.2869 0.183 -0.000 0.0016 0.183 0.0016
1708350883.2928 0.184 -0.000 -0.0000 0.184 -0.0000
1708350883.3017 0.186 -0.000 -0.0000 0.186 -0.0000
1708350883.3099 0.189 -0.000 0.0016 0.189 0.0016
1708350883.3171 0.192 -0.000 0.0031 0.192 0.0031
1708350883.3249 0.195 -0.000 0.0031 0.195 0.0031
1708350883.3332 0.196 0.000 0.0031 0.196 0.0031
1708350883.3414 0.198 0.000 0.0016 0.198 0.0016
1708350883.3493 0.201 0.000 0.0031 0.201 0.0031
1708350883.3576 0.204 0.000 0.0031 0.204 0.0031
1708350883.3656 0.206 0.000 0.0016 0.206 0.0016
1708350883.3738 0.207 0.000 0.0031 0.207 0.0031
1708350883.3808 0.210 0.000 0.0031 0.210 0.0031
1708350883.3896 0.213 0.000 0.0016 0.213 0.0016
1708350883.3975 0.215 0.000 0.0016 0.215 0.0016
1708350883.4057 0.217 0.000 0.0031 0.217 0.0031
1708350883.4130 0.220 0.000 0.0047 0.220 0.0047
1708350883.4215 0.223 0.000 0.0031 0.223 0.0031
1708350883.4296 0.225 0.000 0.0016 0.225 0.0016
1708350883.4369 0.227 0.000 -0.0016 0.227 -0.0016
1708350883.4448 0.229 0.000 -0.0000 0.229 -0.0000
1708350883.4530 0.232 0.000 0.0031 0.232 0.0031
1708350883.4615 0.234 0.000 0.0031 0.234 0.0031
1708350883.4689 0.237 0.000 -0.0016 0.237 -0.0016
1708350883.4771 0.239 0.000 -0.0031 0.239 -0.0031
1708350883.4854 0.241 0.000 0.0016 0.241 0.0016
1708350883.4932 0.244 0.000 0.0047 0.244 0.0047
1708350883.5014 0.246 0.000 0.0016 0.246 0.0016
1708350883.5098 0.249 0.000 -0.0047 0.249 -0.0047
1708350883.5170 0.251 0.000 -0.0047 0.251 -0.0047
1708350883.5253 0.253 0.000 0.0031 0.253 0.0031
1708350883.5336 0.256 0.000 0.0031 0.256 0.0031
1708350883.5420 0.258 0.000 0.0016 0.258 0.0016
1708350883.5493 0.261 0.000 -0.0016 0.261 -0.0016
1708350883.5576 0.264 0.000 -0.0000 0.264 -0.0000
1708350883.5660 0.266 0.000 0.0031 0.266 0.0031
1708350883.5732 0.267 0.000 0.0031 0.267 0.0031
1708350883.5815 0.270 0.000 0.0016 0.270 0.0016
1708350883.5896 0.273 0.000 0.0016 0.273 0.0016
1708350883.5968 0.276 0.000 0.0031 0.276 0.0031
1708350883.6049 0.278 0.000 0.0031 0.278 0.0031
1708350883.6138 0.279 0.000 0.0031 0.279 0.0031
1708350883.6244 0.282 0.000 0.0031 0.282 0.0031
1708350883.6296 0.285 0.000 0.0016 0.285 0.0016
1708350883.6378 0.288 0.000 -0.0000 0.288 -0.0000
1708350883.6451 0.290 0.000 0.0016 0.290 0.0016
1708350883.6536 0.291 0.000 0.0016 0.291 0.0016
1708350883.6614 0.293 0.000 0.0016 0.293 0.0016
1708350883.6693 0.296 0.000 0.0031 0.296 0.0031
1708350883.6773 0.299 0.000 0.0016 0.299 0.0016
1708350883.6851 0.301 0.000 0.0031 0.301 0.0031
1708350883.6933 0.303 0.000 0.0031 0.303 0.0031
1708350883.7014 0.306 0.000 -0.0000 0.306 -0.0000
1708350883.7093 0.308 0.000 0.0016 0.308 0.0016
1708350883.7173 0.311 0.000 0.0016 0.311 0.0016
1708350883.7257 0.313 0.000 -0.0000 0.313 -0.0000
1708350883.7335 0.315 0.000 0.0016 0.315 0.0016
1708350883.7416 0.318 0.000 0.0016 0.318 0.0016
1708350883.7489 0.320 0.000 -0.0000 0.320 -0.0000
1708350883.7578 0.322 0.000 0.0016 0.322 0.0016
1708350883.7656 0.324 0.000 0.0016 0.324 0.0016
1708350883.7730 0.326 0.000 0.0047 0.326 0.0047
1708350883.7810 0.329 0.000 0.0016 0.329 0.0016
1708350883.7892 0.331 0.000 -0.0000 0.331 -0.0000
1708350883.7975 0.333 0.000 0.0016 0.333 0.0016
1708350883.8058 0.336 0.000 0.0062 0.336 0.0062
1708350883.8135 0.339 0.000 0.0047 0.339 0.0047
1708350883.8217 0.341 0.000 -0.0000 0.341 -0.0000
1708350883.8295 0.343 0.000 0.0016 0.343 0.0016
1708350883.8376 0.345 0.000 0.0047 0.345 0.0047
1708350883.8449 0.347 0.000 0.0062 0.347 0.0062
1708350883.8529 0.350 0.000 0.0047 0.350 0.0047
1708350883.8612 0.353 0.000 0.0016 0.353 0.0016
1708350883.8691 0.355 0.000 -0.0000 0.355 -0.0000
1708350883.8778 0.357 0.000 0.0031 0.357 0.0031
1708350883.8850 0.359 0.000 0.0062 0.359 0.0062
1708350883.8933 0.362 0.000 0.0031 0.362 0.0031
1708350883.9012 0.365 0.000 0.0016 0.365 0.0016
1708350883.9094 0.367 0.000 0.0016 0.367 0.0016
1708350883.9173 0.369 0.000 0.0031 0.369 0.0031
1708350883.9249 0.372 0.000 0.0047 0.372 0.0047
1708350883.9332 0.374 0.000 0.0016 0.374 0.0016
1708350883.9416 0.377 0.000 0.0016 0.377 0.0016
1708350883.9494 0.379 0.000 0.0031 0.379 0.0031
1708350883.9577 0.382 0.000 0.0047 0.382 0.0047
1708350883.9665 0.384 0.000 0.0031 0.384 0.0031
1708350883.9733 0.386 0.000 -0.0016 0.386 -0.0016
1708350883.9816 0.388 0.000 -0.0000 0.388 -0.0000
1708350883.9889 0.390 0.000 0.0031 0.390 0.0031
1708350883.9978 0.393 0.000 0.0062 0.393 0.0062
1708350884.0050 0.396 0.000 0.0031 0.396 0.0031
1708350884.0133 0.398 0.000 -0.0000 0.398 -0.0000
1708350884.0218 0.400 0.000 -0.0000 0.400 -0.0000
1708350884.0291 0.403 0.000 0.0031 0.403 0.0031
1708350884.0375 0.405 0.000 0.0031 0.405 0.0031
1708350884.0454 0.408 0.000 -0.0000 0.408 -0.0000
1708350884.0537 0.410 0.000 -0.0016 0.410 -0.0016
1708350884.0619 0.412 0.000 -0.0000 0.412 -0.0000
1708350884.0693 0.415 0.000 0.0031 0.415 0.0031
1708350884.0776 0.417 0.000 0.0047 0.417 0.0047
1708350884.0848 0.420 0.000 0.0016 0.420 0.0016
1708350884.0938 0.422 0.000 -0.0000 0.422 -0.0000
1708350884.1019 0.424 0.000 0.0016 0.424 0.0016
1708350884.1092 0.426 0.000 0.0047 0.426 0.0047
1708350884.1178 0.429 0.000 0.0047 0.429 0.0047
1708350884.1249 0.432 0.000 -0.0000 0.432 -0.0000
1708350884.1333 0.433 0.000 -0.0016 0.433 -0.0016
1708350884.1411 0.435 0.000 0.0031 0.435 0.0031
1708350884.1491 0.438 0.001 0.0062 0.438 0.0062
1708350884.1575 0.442 0.001 0.0047 0.442 0.0047
1708350884.1661 0.444 0.001 -0.0000 0.444 -0.0000
1708350884.1729 0.445 0.001 -0.0000 0.445 -0.0000
1708350884.1813 0.448 0.001 -0.0000 0.448 -0.0000
1708350884.1891 0.451 0.001 -0.0000 0.451 -0.0000
1708350884.1972 0.453 0.001 -0.0000 0.453 -0.0000
1708350884.2055 0.455 0.001 0.0016 0.455 0.0016
1708350884.2134 0.458 0.001 -0.0000 0.458 -0.0000
1708350884.2214 0.460 0.001 0.0016 0.460 0.0016
1708350884.2298 0.463 0.001 -0.0000 0.463 -0.0000
1708350884.2371 0.465 0.001 -0.0016 0.465 -0.0016
1708350884.2453 0.467 0.001 -0.0016 0.467 -0.0016
1708350884.2536 0.469 0.001 0.0016 0.469 0.0016
1708350884.2616 0.471 0.001 0.0031 0.471 0.0031
1708350884.2694 0.475 0.001 0.0016 0.475 0.0016
1708350884.2777 0.477 0.001 -0.0016 0.477 -0.0016
1708350884.2853 0.479 0.001 -0.0016 0.479 -0.0016
1708350884.2936 0.481 0.001 0.0016 0.481 0.0016
1708350884.3010 0.484 0.001 0.0031 0.484 0.0031
1708350884.3088 0.487 0.001 0.0031 0.487 0.0031
1708350884.3178 0.489 0.001 0.0016 0.489 0.0016
1708350884.3248 0.491 0.001 -0.0000 0.491 -0.0000
1708350884.3337 0.493 0.001 0.0016 0.493 0.0016
1708350884.3409 0.496 0.001 -0.0016 0.496 -0.0016
1708350884.3492 0.499 0.001 -0.0047 0.499 -0.0047
1708350884.3571 0.501 0.001 -0.0047 0.501 -0.0047
1708350884.3660 0.503 0.001 -0.0093 0.503 -0.0093
1708350884.3733 0.506 0.001 -0.0140 0.506 -0.0140
1708350884.3812 0.508 0.000 -0.0171 0.508 -0.0171
1708350884.3895 0.510 0.000 -0.0202 0.510 -0.0202
1708350884.3977 0.512 0.000 -0.0233 0.512 -0.0233
1708350884.4055 0.515 0.000 -0.0295 0.515 -0.0295
1708350884.4138 0.518 0.000 -0.0373 0.518 -0.0373
1708350884.4216 0.520 0.000 -0.0404 0.520 -0.0404
1708350884.4294 0.522 0.000 -0.0466 0.522 -0.0466
1708350884.4378 0.524 -0.000 -0.0543 0.524 -0.0543
1708350884.4451 0.527 -0.000 -0.0621 0.527 -0.0621
1708350884.4530 0.529 -0.000 -0.0699 0.529 -0.0699
1708350884.4610 0.531 -0.001 -0.0745 0.531 -0.0745
1708350884.4690 0.534 -0.001 -0.0807 0.534 -0.0807
1708350884.4771 0.536 -0.001 -0.0900 0.536 -0.0900
1708350884.4853 0.538 -0.001 -0.0978 0.538 -0.0978
1708350884.4937 0.541 -0.001 -0.1040 0.541 -0.1040
1708350884.5017 0.544 -0.002 -0.1102 0.544 -0.1102
1708350884.5099 0.546 -0.002 -0.1164 0.546 -0.1164
1708350884.5168 0.548 -0.002 -0.1226 0.548 -0.1226
1708350884.5258 0.550 -0.002 -0.1288 0.551 -0.1288
1708350884.5331 0.553 -0.003 -0.1382 0.553 -0.1382
1708350884.5414 0.556 -0.003 -0.1428 0.556 -0.1428
1708350884.5489 0.558 -0.004 -0.1459 0.558 -0.1459
1708350884.5571 0.560 -0.004 -0.1506 0.561 -0.1506
1708350884.5661 0.563 -0.004 -0.1599 0.563 -0.1599
1708350884.5739 0.565 -0.005 -0.1692 0.565 -0.1692
1708350884.5811 0.568 -0.005 -0.1739 0.568 -0.1739
1708350884.5894 0.570 -0.006 -0.1723 0.571 -0.1723
1708350884.5970 0.572 -0.006 -0.1723 0.573 -0.1723
1708350884.6053 0.575 -0.006 -0.1816 0.575 -0.1816
1708350884.6136 0.577 -0.007 -0.1925 0.577 -0.1925
1708350884.6211 0.580 -0.007 -0.1940 0.580 -0.1940
1708350884.6294 0.582 -0.008 -0.1909 0.583 -0.1909
1708350884.6378 0.584 -0.008 -0.1925 0.584 -0.1925
1708350884.6454 0.586 -0.009 -0.1987 0.587 -0.1987
1708350884.6537 0.589 -0.009 -0.2033 0.589 -0.2033
1708350884.6610 0.591 -0.010 -0.2033 0.592 -0.2033
1708350884.6695 0.593 -0.010 -0.2049 0.594 -0.2049
1708350884.6774 0.595 -0.010 -0.2049 0.596 -0.2049
1708350884.6856 0.598 -0.011 -0.2064 0.598 -0.2064
1708350884.6935 0.600 -0.012 -0.2064 0.601 -0.2064
1708350884.7009 0.603 -0.012 -0.2080 0.604 -0.2080
1708350884.7093 0.605 -0.012 -0.2096 0.606 -0.2096
1708350884.7169 0.607 -0.013 -0.2080 0.608 -0.2080
1708350884.7251 0.609 -0.013 -0.2080 0.610 -0.2080
1708350884.7333 0.612 -0.014 -0.2096 0.613 -0.2096
1708350884.7412 0.614 -0.014 -0.2096 0.615 -0.2096
1708350884.7496 0.616 -0.015 -0.2080 0.617 -0.2080
1708350884.7570 0.619 -0.015 -0.2064 0.620 -0.2064
1708350884.7657 0.621 -0.016 -0.2064 0.623 -0.2064
1708350884.7730 0.623 -0.016 -0.2064 0.625 -0.2064
1708350884.7813 0.626 -0.017 -0.2033 0.627 -0.2033
1708350884.7892 0.628 -0.017 -0.2002 0.629 -0.2002
1708350884.7974 0.630 -0.018 -0.2002 0.632 -0.2002
1708350884.8058 0.633 -0.018 -0.2018 0.635 -0.2018
1708350884.8132 0.636 -0.019 -0.2002 0.637 -0.2002
1708350884.8219 0.638 -0.019 -0.1956 0.640 -0.1956
1708350884.8292 0.640 -0.020 -0.1925 0.642 -0.1925
1708350884.8370 0.642 -0.020 -0.1925 0.644 -0.1925
1708350884.8453 0.645 -0.021 -0.1940 0.647 -0.1940
1708350884.8536 0.648 -0.021 -0.1925 0.650 -0.1925
1708350884.8614 0.650 -0.022 -0.1878 0.652 -0.1878
1708350884.8691 0.651 -0.022 -0.1863 0.653 -0.1863
1708350884.8774 0.654 -0.022 -0.1863 0.656 -0.1863
1708350884.8853 0.656 -0.023 -0.1863 0.659 -0.1863
1708350884.8937 0.659 -0.023 -0.1832 0.661 -0.1832
1708350884.9009 0.661 -0.024 -0.1801 0.663 -0.1801
1708350884.9098 0.663 -0.024 -0.1816 0.665 -0.1816
1708350884.9175 0.666 -0.025 -0.1801 0.668 -0.1801
1708350884.9248 0.669 -0.025 -0.1754 0.671 -0.1754
1708350884.9338 0.671 -0.026 -0.1707 0.673 -0.1707
1708350884.9410 0.672 -0.026 -0.1692 0.675 -0.1692
1708350884.9494 0.674 -0.026 -0.1692 0.677 -0.1692
1708350884.9578 0.678 -0.027 -0.1692 0.680 -0.1692
1708350884.9656 0.681 -0.027 -0.1645 0.683 -0.1645
1708350884.9729 0.683 -0.028 -0.1630 0.685 -0.1630
1708350884.9818 0.684 -0.028 -0.1614 0.687 -0.1614
1708350884.9890 0.687 -0.028 -0.1614 0.689 -0.1614
1708350884.9973 0.689 -0.029 -0.1599 0.692 -0.1599
1708350885.0051 0.692 -0.029 -0.1552 0.695 -0.1552
1708350885.0133 0.694 -0.029 -0.1521 0.697 -0.1521
1708350885.0214 0.696 -0.030 -0.1537 0.699 -0.1537
1708350885.0292 0.699 -0.030 -0.1506 0.701 -0.1506
1708350885.0376 0.702 -0.031 -0.1475 0.704 -0.1475
1708350885.0459 0.704 -0.031 -0.1459 0.706 -0.1459
1708350885.0528 0.706 -0.031 -0.1444 0.709 -0.1444
1708350885.0611 0.708 -0.032 -0.1444 0.711 -0.1444
1708350885.0690 0.711 -0.032 -0.1413 0.714 -0.1413
1708350885.0769 0.713 -0.032 -0.1366 0.716 -0.1366
1708350885.0855 0.715 -0.032 -0.1335 0.718 -0.1335
1708350885.0937 0.717 -0.033 -0.1350 0.720 -0.1350
1708350885.1016 0.720 -0.033 -0.1335 0.723 -0.1335
1708350885.1088 0.723 -0.034 -0.1319 0.726 -0.1319
1708350885.1178 0.725 -0.034 -0.1288 0.728 -0.1288
1708350885.1257 0.727 -0.034 -0.1257 0.730 -0.1257
1708350885.1329 0.729 -0.034 -0.1242 0.732 -0.1242
1708350885.1411 0.732 -0.035 -0.1242 0.735 -0.1242
1708350885.1490 0.734 -0.035 -0.1211 0.737 -0.1211
1708350885.1573 0.736 -0.035 -0.1195 0.739 -0.1195
1708350885.1656 0.739 -0.035 -0.1164 0.742 -0.1164
1708350885.1729 0.742 -0.036 -0.1133 0.745 -0.1133
1708350885.1810 0.744 -0.036 -0.1133 0.747 -0.1133
1708350885.1893 0.746 -0.036 -0.1102 0.749 -0.1102
1708350885.1971 0.748 -0.037 -0.1071 0.751 -0.1071
1708350885.2055 0.751 -0.037 -0.1024 0.754 -0.1024
1708350885.2139 0.754 -0.037 -0.1009 0.757 -0.1009
1708350885.2213 0.756 -0.037 -0.0993 0.759 -0.0993
1708350885.2295 0.758 -0.038 -0.0978 0.761 -0.0978
1708350885.2378 0.760 -0.038 -0.0947 0.764 -0.0947
1708350885.2455 0.763 -0.038 -0.0916 0.767 -0.0916
1708350885.2538 0.766 -0.038 -0.0900 0.769 -0.0900
1708350885.2611 0.768 -0.038 -0.0885 0.771 -0.0885
1708350885.2696 0.770 -0.039 -0.0869 0.773 -0.0869
1708350885.2781 0.773 -0.039 -0.0838 0.776 -0.0838
1708350885.2855 0.776 -0.039 -0.0792 0.779 -0.0792
1708350885.2933 0.778 -0.039 -0.0792 0.781 -0.0792
1708350885.3016 0.780 -0.039 -0.0792 0.783 -0.0792
1708350885.3089 0.782 -0.040 -0.0776 0.785 -0.0776
1708350885.3172 0.785 -0.040 -0.0745 0.788 -0.0745
1708350885.3255 0.788 -0.040 -0.0730 0.791 -0.0730
1708350885.3328 0.790 -0.040 -0.0699 0.793 -0.0699
1708350885.3419 0.792 -0.040 -0.0699 0.795 -0.0699
1708350885.3498 0.794 -0.040 -0.0714 0.797 -0.0714
1708350885.3570 0.797 -0.041 -0.0699 0.800 -0.0699
1708350885.3656 0.799 -0.041 -0.0652 0.803 -0.0652
1708350885.3736 0.801 -0.041 -0.0605 0.805 -0.0605
1708350885.3808 0.803 -0.041 -0.0605 0.807 -0.0605
1708350885.3898 0.806 -0.041 -0.0621 0.809 -0.0621
1708350885.3971 0.809 -0.041 -0.0590 0.812 -0.0590
1708350885.4053 0.811 -0.042 -0.0543 0.815 -0.0543
1708350885.4135 0.813 -0.042 -0.0528 0.816 -0.0528
1708350885.4214 0.815 -0.042 -0.0559 0.818 -0.0559
1708350885.4298 0.818 -0.042 -0.0543 0.821 -0.0543
1708350885.4378 0.821 -0.042 -0.0481 0.824 -0.0481
1708350885.4450 0.823 -0.042 -0.0419 0.826 -0.0419
1708350885.4533 0.825 -0.042 -0.0435 0.828 -0.0435
1708350885.4611 0.827 -0.042 -0.0450 0.830 -0.0450
1708350885.4691 0.830 -0.042 -0.0435 0.833 -0.0435
1708350885.4777 0.833 -0.043 -0.0373 0.836 -0.0373
1708350885.4857 0.835 -0.043 -0.0326 0.838 -0.0326
1708350885.4931 0.837 -0.043 -0.0341 0.840 -0.0341
1708350885.5016 0.839 -0.043 -0.0373 0.843 -0.0373
1708350885.5091 0.842 -0.043 -0.0357 0.845 -0.0357
1708350885.5173 0.844 -0.043 -0.0279 0.848 -0.0279
1708350885.5259 0.846 -0.043 -0.0233 0.850 -0.0233
1708350885.5331 0.849 -0.043 -0.0233 0.852 -0.0233
1708350885.5417 0.851 -0.043 -0.0264 0.855 -0.0264
1708350885.5494 0.854 -0.043 -0.0233 0.857 -0.0233
1708350885.5577 0.856 -0.043 -0.0186 0.860 -0.0186
1708350885.5653 0.859 -0.043 -0.0155 0.862 -0.0155
1708350885.5738 0.861 -0.043 -0.0186 0.864 -0.0186
1708350885.5819 0.863 -0.043 -0.0217 0.866 -0.0217
1708350885.5893 0.866 -0.043 -0.0186 0.869 -0.0186
1708350885.5978 0.868 -0.044 -0.0109 0.872 -0.0109
1708350885.6049 0.870 -0.044 -0.0078 0.874 -0.0078
1708350885.6136 0.873 -0.044 -0.0078 0.876 -0.0078
1708350885.6219 0.875 -0.044 -0.0124 0.878 -0.0124
1708350885.6290 0.878 -0.044 -0.0140 0.881 -0.0140
1708350885.6374 0.880 -0.044 -0.0093 0.883 -0.0093
1708350885.6459 0.882 -0.044 -0.0031 0.886 -0.0031
1708350885.6530 0.885 -0.044 -0.0031 0.888 -0.0031
1708350885.6615 0.887 -0.044 -0.0078 0.890 -0.0078
1708350885.6691 0.889 -0.044 -0.0109 0.893 -0.0109
