% Pose without folding and reset (log_20240224_121330.596/log_pose_abs.txt)
% 1 	Time (sec)
% 2,3 	Position x,y (m)
% 4 	heading (rad)
% 5 	Driven distance (m) - signed
% 6 	Turned angle (rad) - signed
1708773210.7925 0.000 0.000 0.0000 0.000 0.0000
1708773210.8004 0.000 0.000 0.0000 0.000 0.0000
1708773210.8088 0.000 0.000 0.0000 0.000 0.0000
1708773210.8155 0.000 0.000 0.0000 0.000 0.0000
1708773210.8238 0.000 0.000 0.0000 0.000 0.0000
1708773210.8321 0.000 0.000 0.0000 0.000 0.0000
1708773210.8399 0.000 0.000 0.0000 0.000 0.0000
1708773210.8477 0.000 0.000 0.0000 0.000 0.0000
1708773210.8559 0.000 0.000 0.0000 0.000 0.0000
1708773210.8637 0.000 0.000 0.0000 0.000 0.0000
1708773210.8711 0.000 0.000 0.0000 0.000 0.0000
1708773210.8796 0.000 0.000 0.0000 0.000 0.0000
1708773210.8877 0.000 0.000 0.0000 0.000 0.0000
1708773210.8951 0.000 0.000 0.0000 0.000 0.0000
1708773210.9034 0.000 0.000 0.0000 0.000 0.0000
1708773210.9111 0.000 0.000 0.0000 0.000 0.0000
1708773210.9191 0.000 0.000 0.0000 0.000 0.0000
1708773210.9272 0.001 0.000 0.0078 0.001 0.0078
1708773210.9359 0.003 0.000 0.0078 0.003 0.0078
1708773210.9440 0.005 0.000 0.0062 0.005 0.0062
1708773210.9518 0.006 0.000 0.0062 0.006 0.0062
1708773210.9596 0.007 0.000 0.0078 0.007 0.0078
1708773210.9681 0.009 0.000 0.0093 0.009 0.0093
1708773210.9753 0.011 0.000 0.0093 0.011 0.0093
1708773210.9843 0.013 0.000 0.0093 0.013 0.0093
1708773210.9917 0.015 0.000 0.0093 0.015 0.0093
1708773211.0037 0.018 0.000 0.0109 0.018 0.0109
1708773211.0088 0.021 0.000 0.0140 0.021 0.0140
1708773211.0163 0.024 0.000 0.0140 0.024 0.0140
1708773211.0244 0.026 0.000 0.0155 0.026 0.0155
1708773211.0330 0.028 0.000 0.0171 0.028 0.0171
1708773211.0401 0.032 0.000 0.0217 0.032 0.0217
1708773211.0479 0.036 0.000 0.0233 0.036 0.0233
1708773211.0564 0.038 0.001 0.0233 0.038 0.0233
1708773211.0645 0.041 0.001 0.0248 0.041 0.0248
1708773211.0716 0.045 0.001 0.0264 0.045 0.0264
1708773211.0801 0.049 0.001 0.0279 0.049 0.0279
1708773211.0919 0.052 0.001 0.0310 0.052 0.0310
1708773211.0958 0.054 0.001 0.0357 0.054 0.0357
1708773211.1041 0.057 0.001 0.0357 0.057 0.0357
1708773211.1117 0.060 0.001 0.0357 0.060 0.0357
1708773211.1200 0.063 0.001 0.0357 0.063 0.0357
1708773211.1276 0.067 0.001 0.0388 0.067 0.0388
1708773211.1368 0.071 0.002 0.0435 0.071 0.0435
1708773211.1441 0.074 0.002 0.0466 0.074 0.0466
1708773211.1524 0.077 0.002 0.0466 0.077 0.0466
1708773211.1596 0.080 0.002 0.0450 0.080 0.0450
1708773211.1686 0.084 0.002 0.0497 0.084 0.0497
1708773211.1756 0.086 0.002 0.0528 0.086 0.0528
1708773211.1846 0.089 0.002 0.0559 0.089 0.0559
1708773211.1918 0.093 0.003 0.0574 0.093 0.0574
1708773211.2000 0.096 0.003 0.0574 0.096 0.0574
1708773211.2084 0.099 0.003 0.0590 0.099 0.0590
1708773211.2314 0.109 0.004 0.0699 0.109 0.0699
1708773211.2391 0.113 0.004 0.0699 0.113 0.0699
1708773211.2469 0.116 0.004 0.0667 0.116 0.0667
1708773211.2556 0.118 0.004 0.0699 0.118 0.0699
1708773211.2632 0.121 0.005 0.0745 0.121 0.0745
1708773211.2710 0.125 0.005 0.0792 0.125 0.0792
1708773211.2799 0.128 0.005 0.0776 0.128 0.0776
1708773211.2876 0.131 0.005 0.0761 0.131 0.0761
1708773211.2955 0.134 0.006 0.0761 0.134 0.0761
1708773211.3051 0.137 0.006 0.0792 0.137 0.0792
1708773211.3116 0.141 0.006 0.0792 0.141 0.0792
1708773211.3196 0.144 0.006 0.0776 0.144 0.0776
1708773211.3274 0.147 0.007 0.0761 0.147 0.0761
1708773211.3351 0.150 0.007 0.0761 0.150 0.0761
1708773211.3429 0.153 0.007 0.0776 0.153 0.0776
1708773211.3514 0.157 0.007 0.0761 0.157 0.0761
1708773211.3591 0.160 0.008 0.0730 0.160 0.0730
1708773211.3669 0.163 0.008 0.0714 0.163 0.0714
1708773211.3754 0.166 0.008 0.0699 0.166 0.0699
1708773211.3831 0.169 0.008 0.0714 0.169 0.0714
1708773211.3910 0.173 0.008 0.0699 0.173 0.0699
1708773211.3993 0.176 0.009 0.0714 0.176 0.0714
1708773211.4069 0.178 0.009 0.0714 0.178 0.0714
1708773211.4147 0.181 0.009 0.0667 0.182 0.0667
1708773211.4237 0.185 0.009 0.0621 0.185 0.0621
1708773211.4313 0.188 0.009 0.0636 0.188 0.0636
1708773211.4390 0.191 0.010 0.0621 0.192 0.0621
1708773211.4480 0.194 0.010 0.0590 0.195 0.0590
1708773211.4553 0.197 0.010 0.0528 0.198 0.0528
1708773211.4633 0.201 0.010 0.0512 0.201 0.0512
1708773211.4712 0.204 0.010 0.0528 0.204 0.0528
1708773211.4789 0.207 0.011 0.0512 0.207 0.0512
1708773211.4877 0.210 0.011 0.0466 0.210 0.0466
1708773211.4954 0.213 0.011 0.0419 0.214 0.0419
1708773211.5030 0.217 0.011 0.0419 0.217 0.0419
1708773211.5141 0.220 0.011 0.0435 0.220 0.0435
1708773211.5196 0.223 0.011 0.0435 0.223 0.0435
1708773211.5282 0.226 0.011 0.0404 0.227 0.0404
1708773211.5349 0.229 0.011 0.0373 0.230 0.0373
1708773211.5439 0.232 0.012 0.0357 0.233 0.0357
1708773211.5512 0.235 0.012 0.0388 0.235 0.0388
1708773211.5590 0.238 0.012 0.0388 0.239 0.0388
1708773211.5679 0.242 0.012 0.0310 0.242 0.0310
1708773211.5754 0.245 0.012 0.0264 0.245 0.0264
1708773211.5833 0.248 0.012 0.0264 0.248 0.0264
1708773211.5913 0.251 0.012 0.0295 0.251 0.0295
1708773211.5996 0.254 0.012 0.0279 0.255 0.0279
1708773211.6075 0.257 0.012 0.0233 0.258 0.0233
1708773211.6163 0.261 0.012 0.0186 0.261 0.0186
1708773211.6227 0.264 0.013 0.0217 0.264 0.0217
1708773211.6317 0.267 0.013 0.0233 0.268 0.0233
1708773211.6397 0.270 0.013 0.0202 0.270 0.0202
1708773211.6467 0.273 0.013 0.0140 0.274 0.0140
1708773211.6552 0.277 0.013 0.0109 0.277 0.0109
1708773211.6647 0.280 0.013 0.0124 0.280 0.0124
1708773211.6713 0.282 0.013 0.0140 0.283 0.0140
1708773211.6793 0.286 0.013 0.0124 0.286 0.0124
1708773211.6872 0.289 0.013 0.0078 0.289 0.0078
1708773211.6949 0.292 0.013 0.0047 0.293 0.0047
1708773211.7035 0.295 0.013 0.0047 0.296 0.0047
1708773211.7114 0.298 0.013 0.0062 0.299 0.0062
1708773211.7191 0.302 0.013 0.0062 0.303 0.0062
1708773211.7270 0.306 0.013 0.0016 0.306 0.0016
1708773211.7407 0.308 0.013 -0.0016 0.309 -0.0016
1708773211.7432 0.311 0.013 -0.0078 0.311 -0.0078
1708773211.7515 0.313 0.013 -0.0047 0.314 -0.0047
1708773211.7598 0.315 0.013 0.0016 0.315 0.0016
1708773211.7677 0.317 0.013 0.0047 0.318 0.0047
1708773211.7755 0.321 0.013 0.0031 0.322 0.0031
1708773211.7835 0.325 0.013 -0.0016 0.326 -0.0016
1708773211.7912 0.328 0.013 -0.0031 0.329 -0.0031
1708773211.7996 0.330 0.013 -0.0031 0.331 -0.0031
1708773211.8075 0.333 0.013 -0.0031 0.333 -0.0031
1708773211.8151 0.337 0.013 -0.0047 0.337 -0.0047
1708773211.8231 0.340 0.013 -0.0093 0.341 -0.0093
1708773211.8321 0.343 0.013 -0.0109 0.343 -0.0109
1708773211.8387 0.345 0.013 -0.0078 0.346 -0.0078
1708773211.8475 0.349 0.013 -0.0093 0.349 -0.0093
1708773211.8551 0.352 0.013 -0.0140 0.352 -0.0140
1708773211.8628 0.356 0.013 -0.0186 0.356 -0.0186
1708773211.8709 0.358 0.013 -0.0186 0.359 -0.0186
1708773211.8802 0.361 0.013 -0.0155 0.361 -0.0155
1708773211.8878 0.364 0.013 -0.0155 0.364 -0.0155
1708773211.8948 0.368 0.013 -0.0202 0.368 -0.0202
1708773211.9038 0.371 0.012 -0.0248 0.372 -0.0248
1708773211.9117 0.373 0.012 -0.0248 0.374 -0.0248
1708773211.9188 0.376 0.012 -0.0248 0.377 -0.0248
1708773211.9279 0.380 0.012 -0.0248 0.380 -0.0248
1708773211.9354 0.383 0.012 -0.0279 0.384 -0.0279
1708773211.9434 0.387 0.012 -0.0326 0.387 -0.0326
1708773211.9512 0.390 0.012 -0.0326 0.390 -0.0326
1708773211.9588 0.393 0.012 -0.0310 0.393 -0.0310
1708773211.9669 0.396 0.012 -0.0310 0.396 -0.0310
1708773211.9760 0.399 0.012 -0.0357 0.399 -0.0357
1708773211.9836 0.402 0.012 -0.0341 0.402 -0.0341
1708773211.9916 0.405 0.011 -0.0341 0.406 -0.0341
1708773211.9992 0.409 0.011 -0.0373 0.409 -0.0373
1708773212.0068 0.412 0.011 -0.0388 0.412 -0.0388
1708773212.0148 0.414 0.011 -0.0388 0.415 -0.0388
1708773212.0247 0.418 0.011 -0.0388 0.418 -0.0388
1708773212.0314 0.422 0.011 -0.0404 0.422 -0.0404
1708773212.0393 0.425 0.011 -0.0450 0.426 -0.0450
1708773212.0474 0.428 0.011 -0.0466 0.428 -0.0466
1708773212.0547 0.431 0.010 -0.0466 0.431 -0.0466
1708773212.0627 0.434 0.010 -0.0435 0.435 -0.0435
1708773212.0715 0.438 0.010 -0.0450 0.438 -0.0450
1708773212.0793 0.441 0.010 -0.0481 0.442 -0.0481
1708773212.0872 0.444 0.010 -0.0512 0.445 -0.0512
1708773212.0952 0.447 0.010 -0.0481 0.448 -0.0481
1708773212.1035 0.451 0.009 -0.0450 0.451 -0.0450
1708773212.1113 0.454 0.009 -0.0497 0.455 -0.0497
1708773212.1192 0.457 0.009 -0.0543 0.458 -0.0543
1708773212.1270 0.460 0.009 -0.0528 0.461 -0.0528
1708773212.1350 0.463 0.009 -0.0481 0.463 -0.0481
1708773212.1439 0.466 0.009 -0.0481 0.467 -0.0481
1708773212.1513 0.470 0.008 -0.0528 0.470 -0.0528
1708773212.1590 0.473 0.008 -0.0543 0.474 -0.0543
1708773212.1679 0.476 0.008 -0.0512 0.477 -0.0512
1708773212.1757 0.479 0.008 -0.0466 0.479 -0.0466
1708773212.1836 0.482 0.008 -0.0481 0.483 -0.0481
1708773212.1917 0.485 0.008 -0.0528 0.486 -0.0528
1708773212.1991 0.489 0.008 -0.0543 0.489 -0.0543
1708773212.2068 0.492 0.007 -0.0512 0.492 -0.0512
1708773212.2158 0.495 0.007 -0.0466 0.495 -0.0466
1708773212.2236 0.498 0.007 -0.0481 0.498 -0.0481
1708773212.2315 0.501 0.007 -0.0512 0.501 -0.0512
1708773212.2395 0.505 0.007 -0.0497 0.505 -0.0497
1708773212.2481 0.508 0.007 -0.0466 0.508 -0.0466
1708773212.2556 0.511 0.006 -0.0450 0.511 -0.0450
1708773212.2635 0.514 0.006 -0.0466 0.514 -0.0466
1708773212.2712 0.517 0.006 -0.0466 0.518 -0.0466
1708773212.2791 0.521 0.006 -0.0481 0.521 -0.0481
1708773212.2882 0.524 0.006 -0.0481 0.524 -0.0481
1708773212.2957 0.526 0.006 -0.0450 0.527 -0.0450
1708773212.3037 0.530 0.006 -0.0419 0.530 -0.0419
1708773212.3117 0.533 0.005 -0.0419 0.534 -0.0419
1708773212.3194 0.536 0.005 -0.0466 0.537 -0.0466
1708773212.3275 0.539 0.005 -0.0466 0.540 -0.0466
1708773212.3355 0.542 0.005 -0.0404 0.543 -0.0404
1708773212.3432 0.545 0.005 -0.0357 0.546 -0.0357
1708773212.3517 0.548 0.005 -0.0388 0.549 -0.0388
1708773212.3597 0.552 0.005 -0.0435 0.553 -0.0435
1708773212.3674 0.555 0.004 -0.0419 0.556 -0.0419
1708773212.3754 0.559 0.004 -0.0357 0.559 -0.0357
1708773212.3843 0.561 0.004 -0.0326 0.562 -0.0326
1708773212.3910 0.564 0.004 -0.0341 0.565 -0.0341
1708773212.3997 0.568 0.004 -0.0357 0.569 -0.0357
1708773212.4077 0.571 0.004 -0.0326 0.572 -0.0326
1708773212.4154 0.574 0.004 -0.0279 0.574 -0.0279
1708773212.4234 0.577 0.004 -0.0233 0.578 -0.0233
1708773212.4312 0.581 0.004 -0.0248 0.581 -0.0248
1708773212.4389 0.584 0.004 -0.0295 0.584 -0.0295
1708773212.4469 0.587 0.004 -0.0264 0.587 -0.0264
1708773212.4556 0.590 0.003 -0.0186 0.591 -0.0186
1708773212.4633 0.593 0.003 -0.0171 0.594 -0.0171
1708773212.4712 0.597 0.003 -0.0202 0.597 -0.0202
1708773212.4800 0.600 0.003 -0.0171 0.601 -0.0171
1708773212.4867 0.603 0.003 -0.0093 0.604 -0.0093
1708773212.4957 0.606 0.003 -0.0078 0.607 -0.0078
1708773212.5166 0.616 0.003 -0.0062 0.616 -0.0062
1708773212.5256 0.619 0.003 -0.0031 0.620 -0.0031
1708773212.5335 0.622 0.003 -0.0016 0.623 -0.0016
1708773212.5413 0.625 0.003 0.0016 0.626 0.0016
1708773212.5489 0.629 0.003 0.0047 0.629 0.0047
1708773212.5568 0.632 0.003 0.0062 0.633 0.0062
1708773212.5655 0.635 0.003 0.0078 0.635 0.0078
1708773212.5735 0.638 0.003 0.0124 0.638 0.0124
1708773212.5815 0.641 0.003 0.0155 0.642 0.0155
1708773212.5892 0.645 0.003 0.0155 0.645 0.0155
1708773212.5971 0.648 0.003 0.0171 0.649 0.0171
1708773212.6047 0.651 0.003 0.0202 0.651 0.0202
1708773212.6135 0.654 0.003 0.0248 0.654 0.0248
1708773212.6213 0.657 0.004 0.0264 0.658 0.0264
1708773212.6293 0.661 0.004 0.0264 0.662 0.0264
1708773212.6371 0.664 0.004 0.0264 0.665 0.0264
1708773212.6450 0.667 0.004 0.0295 0.667 0.0295
1708773212.6535 0.670 0.004 0.0341 0.670 0.0341
1708773212.6609 0.673 0.004 0.0404 0.674 0.0404
1708773212.6689 0.677 0.004 0.0404 0.678 0.0404
1708773212.6769 0.680 0.004 0.0388 0.680 0.0388
1708773212.6847 0.682 0.004 0.0388 0.683 0.0388
1708773212.6929 0.686 0.005 0.0450 0.686 0.0450
1708773212.7014 0.689 0.005 0.0481 0.690 0.0481
1708773212.7091 0.693 0.005 0.0481 0.693 0.0481
1708773212.7171 0.696 0.005 0.0497 0.696 0.0497
1708773212.7251 0.699 0.005 0.0559 0.699 0.0559
1708773212.7329 0.702 0.005 0.0590 0.703 0.0590
1708773212.7408 0.706 0.006 0.0590 0.706 0.0590
1708773212.7493 0.708 0.006 0.0605 0.709 0.0605
1708773212.7571 0.711 0.006 0.0636 0.712 0.0636
1708773212.7651 0.715 0.006 0.0667 0.715 0.0667
1708773212.7730 0.718 0.006 0.0699 0.719 0.0699
1708773212.7807 0.721 0.007 0.0714 0.722 0.0714
1708773212.7886 0.724 0.007 0.0745 0.724 0.0745
1708773212.7975 0.727 0.007 0.0761 0.727 0.0761
1708773212.8049 0.731 0.007 0.0776 0.731 0.0776
1708773212.8129 0.734 0.008 0.0776 0.735 0.0776
1708773212.8209 0.737 0.008 0.0792 0.738 0.0792
1708773212.8286 0.739 0.008 0.0838 0.740 0.0838
1708773212.8376 0.743 0.008 0.0885 0.743 0.0885
1708773212.8446 0.746 0.009 0.0916 0.747 0.0916
1708773212.8533 0.750 0.009 0.0900 0.751 0.0900
1708773212.8615 0.753 0.009 0.0900 0.753 0.0900
1708773212.8695 0.756 0.009 0.0931 0.756 0.0931
1708773212.8772 0.759 0.010 0.0978 0.759 0.0978
1708773212.8851 0.762 0.010 0.0993 0.763 0.0993
1708773212.8928 0.766 0.010 0.0993 0.766 0.0993
1708773212.9013 0.769 0.011 0.0993 0.769 0.0993
1708773212.9093 0.771 0.011 0.1024 0.772 0.1024
1708773212.9172 0.775 0.011 0.1056 0.776 0.1056
1708773212.9248 0.778 0.012 0.1087 0.779 0.1087
1708773212.9328 0.782 0.012 0.1071 0.783 0.1071
1708773212.9407 0.785 0.012 0.1071 0.786 0.1071
1708773212.9493 0.787 0.013 0.1102 0.788 0.1102
1708773212.9572 0.790 0.013 0.1118 0.791 0.1118
1708773212.9651 0.794 0.013 0.1149 0.795 0.1149
1708773212.9727 0.798 0.014 0.1149 0.799 0.1149
1708773212.9807 0.801 0.014 0.1149 0.802 0.1149
1708773212.9888 0.803 0.015 0.1164 0.804 0.1164
1708773212.9968 0.806 0.015 0.1180 0.807 0.1180
1708773213.0048 0.810 0.015 0.1180 0.811 0.1180
1708773213.0137 0.813 0.016 0.1164 0.814 0.1164
1708773213.0206 0.816 0.016 0.1180 0.817 0.1180
1708773213.0286 0.819 0.016 0.1180 0.820 0.1180
1708773213.0368 0.822 0.017 0.1180 0.823 0.1180
1708773213.0447 0.826 0.017 0.1180 0.827 0.1180
1708773213.0536 0.829 0.018 0.1180 0.830 0.1180
1708773213.0615 0.832 0.018 0.1164 0.833 0.1164
1708773213.0693 0.835 0.018 0.1164 0.836 0.1164
1708773213.0773 0.838 0.019 0.1180 0.840 0.1180
1708773213.0847 0.841 0.019 0.1195 0.842 0.1195
1708773213.0936 0.844 0.019 0.1195 0.845 0.1195
1708773213.1014 0.847 0.020 0.1149 0.849 0.1149
1708773213.1094 0.851 0.020 0.1118 0.852 0.1118
1708773213.1171 0.854 0.021 0.1149 0.856 0.1149
1708773213.1251 0.857 0.021 0.1180 0.859 0.1180
1708773213.1331 0.860 0.021 0.1195 0.862 0.1195
1708773213.1407 0.863 0.022 0.1133 0.865 0.1133
1708773213.1493 0.867 0.022 0.1118 0.868 0.1118
1708773213.1569 0.870 0.022 0.1133 0.872 0.1133
1708773213.1647 0.873 0.023 0.1164 0.875 0.1164
1708773213.1726 0.876 0.023 0.1149 0.878 0.1149
1708773213.1816 0.879 0.023 0.1102 0.881 0.1102
1708773213.1893 0.883 0.024 0.1118 0.884 0.1118
1708773213.1972 0.886 0.024 0.1133 0.887 0.1133
1708773213.2049 0.889 0.025 0.1133 0.891 0.1133
1708773213.2125 0.892 0.025 0.1102 0.894 0.1102
1708773213.2215 0.895 0.025 0.1102 0.897 0.1102
1708773213.2294 0.898 0.026 0.1118 0.900 0.1118
1708773213.2370 0.902 0.026 0.1133 0.903 0.1133
1708773213.2446 0.905 0.026 0.1118 0.907 0.1118
1708773213.2533 0.908 0.027 0.1087 0.910 0.1087
1708773213.2611 0.910 0.027 0.1087 0.912 0.1087
1708773213.2690 0.914 0.027 0.1087 0.915 0.1087
1708773213.2770 0.918 0.028 0.1102 0.919 0.1102
1708773213.2846 0.921 0.028 0.1118 0.923 0.1118
1708773213.2927 0.924 0.028 0.1133 0.925 0.1133
1708773213.3014 0.926 0.029 0.1118 0.928 0.1118
1708773213.3094 0.930 0.029 0.1102 0.931 0.1102
1708773213.3175 0.934 0.030 0.1102 0.936 0.1102
1708773213.3255 0.937 0.030 0.1118 0.939 0.1118
1708773213.3332 0.940 0.030 0.1118 0.942 0.1118
1708773213.3416 0.943 0.030 0.1118 0.945 0.1118
1708773213.3487 0.946 0.031 0.1133 0.948 0.1133
1708773213.3566 0.949 0.031 0.1102 0.951 0.1102
1708773213.3650 0.953 0.032 0.1118 0.955 0.1118
1708773213.3739 0.955 0.032 0.1133 0.957 0.1133
1708773213.3806 0.958 0.032 0.1118 0.960 0.1118
1708773213.3885 0.962 0.033 0.1118 0.964 0.1118
1708773213.3975 0.965 0.033 0.1133 0.967 0.1133
1708773213.4052 0.967 0.033 0.1133 0.970 0.1133
1708773213.4132 0.971 0.034 0.1133 0.973 0.1133
1708773213.4210 0.974 0.034 0.1118 0.977 0.1118
1708773213.4289 0.978 0.034 0.1102 0.980 0.1102
1708773213.4369 0.981 0.035 0.1102 0.983 0.1102
1708773213.4449 0.983 0.035 0.1087 0.985 0.1087
1708773213.4533 0.986 0.035 0.1087 0.988 0.1087
1708773213.4613 0.990 0.036 0.1102 0.992 0.1102
1708773213.4693 0.994 0.036 0.1071 0.996 0.1071
1708773213.4769 0.996 0.036 0.1056 0.998 0.1056
1708773213.4850 0.999 0.037 0.1056 1.001 0.1056
1708773213.4930 1.002 0.037 0.1056 1.004 0.1056
1708773213.5014 1.006 0.038 0.1056 1.008 0.1056
1708773213.5093 1.009 0.038 0.1040 1.011 0.1040
1708773213.5173 1.012 0.038 0.1040 1.014 0.1040
1708773213.5252 1.015 0.038 0.1040 1.017 0.1040
1708773213.5332 1.018 0.039 0.1040 1.021 0.1040
1708773213.5407 1.022 0.039 0.1024 1.024 0.1024
1708773213.5492 1.024 0.039 0.1009 1.027 0.1009
1708773213.5574 1.027 0.040 0.1040 1.030 0.1040
1708773213.5654 1.031 0.040 0.1056 1.033 0.1056
1708773213.5733 1.034 0.040 0.1024 1.037 0.1024
1708773213.5813 1.038 0.041 0.0978 1.040 0.0978
1708773213.5892 1.041 0.041 0.0978 1.043 0.0978
1708773213.5970 1.043 0.041 0.1009 1.046 0.1009
1708773213.6046 1.047 0.042 0.1009 1.049 0.1009
1708773213.6136 1.050 0.042 0.0978 1.053 0.0978
1708773213.6214 1.053 0.042 0.0947 1.056 0.0947
1708773213.6293 1.057 0.043 0.0962 1.059 0.0962
1708773213.6372 1.060 0.043 0.0978 1.062 0.0978
1708773213.6448 1.063 0.043 0.0947 1.065 0.0947
1708773213.6534 1.066 0.044 0.0900 1.069 0.0900
1708773213.6615 1.069 0.044 0.0916 1.072 0.0916
1708773213.6693 1.073 0.044 0.0931 1.075 0.0931
1708773213.6772 1.076 0.044 0.0931 1.079 0.0931
1708773213.6852 1.079 0.045 0.0900 1.082 0.0900
1708773213.6932 1.082 0.045 0.0854 1.085 0.0854
1708773213.7007 1.085 0.045 0.0854 1.088 0.0854
1708773213.7086 1.089 0.046 0.0854 1.091 0.0854
1708773213.7174 1.092 0.046 0.0854 1.094 0.0854
1708773213.7255 1.095 0.046 0.0838 1.098 0.0838
1708773213.7334 1.098 0.046 0.0823 1.101 0.0823
1708773213.7411 1.102 0.047 0.0807 1.104 0.0807
1708773213.7486 1.105 0.047 0.0807 1.107 0.0807
1708773213.7587 1.107 0.047 0.0807 1.110 0.0807
1708773213.7654 1.110 0.047 0.0807 1.113 0.0807
1708773213.7736 1.114 0.048 0.0792 1.116 0.0792
1708773213.7815 1.117 0.048 0.0776 1.120 0.0776
1708773213.7892 1.120 0.048 0.0761 1.123 0.0761
1708773213.7972 1.123 0.048 0.0761 1.126 0.0761
1708773213.8049 1.126 0.049 0.0761 1.129 0.0761
1708773213.8127 1.129 0.049 0.0761 1.132 0.0761
1708773213.8208 1.133 0.049 0.0745 1.136 0.0745
1708773213.8288 1.136 0.049 0.0730 1.139 0.0730
1708773213.8366 1.139 0.050 0.0730 1.142 0.0730
1708773213.8448 1.142 0.050 0.0730 1.145 0.0730
1708773213.8527 1.145 0.050 0.0714 1.148 0.0714
1708773213.8610 1.149 0.050 0.0699 1.152 0.0699
1708773213.8688 1.152 0.050 0.0683 1.155 0.0683
1708773213.8768 1.155 0.051 0.0667 1.157 0.0667
1708773213.8847 1.158 0.051 0.0683 1.161 0.0683
1708773213.8932 1.161 0.051 0.0667 1.164 0.0667
1708773213.9008 1.164 0.051 0.0636 1.167 0.0636
1708773213.9086 1.167 0.052 0.0605 1.170 0.0605
1708773213.9176 1.171 0.052 0.0636 1.174 0.0636
1708773213.9246 1.174 0.052 0.0652 1.177 0.0652
1708773213.9335 1.177 0.052 0.0621 1.180 0.0621
1708773213.9415 1.180 0.052 0.0590 1.183 0.0590
1708773213.9491 1.183 0.053 0.0590 1.186 0.0590
1708773213.9569 1.187 0.053 0.0621 1.190 0.0621
1708773213.9649 1.190 0.053 0.0621 1.193 0.0621
1708773213.9729 1.193 0.053 0.0605 1.196 0.0605
1708773213.9807 1.196 0.053 0.0574 1.199 0.0574
1708773213.9892 1.199 0.053 0.0605 1.202 0.0605
1708773213.9966 1.202 0.054 0.0605 1.205 0.0605
1708773214.0052 1.206 0.054 0.0621 1.209 0.0621
1708773214.0131 1.209 0.054 0.0574 1.212 0.0574
1708773214.0239 1.212 0.054 0.0574 1.215 0.0574
1708773214.0292 1.215 0.054 0.0590 1.218 0.0590
1708773214.0375 1.219 0.055 0.0621 1.222 0.0621
1708773214.0449 1.221 0.055 0.0590 1.224 0.0590
1708773214.0534 1.224 0.055 0.0559 1.227 0.0559
1708773214.0612 1.227 0.055 0.0528 1.230 0.0528
1708773214.0691 1.231 0.055 0.0528 1.234 0.0528
1708773214.0768 1.235 0.056 0.0559 1.238 0.0559
