% Pose without folding and reset (log_20240308_171145.081/log_pose_abs.txt)
% 1 	Time (sec)
% 2,3 	Position x,y (m)
% 4 	heading (rad)
% 5 	Driven distance (m) - signed
% 6 	Turned angle (rad) - signed
1709914305.9479 0.000 0.000 0.0000 0.000 0.0000
1709914305.9563 0.000 0.000 0.0000 0.000 0.0000
1709914305.9644 0.002 0.000 0.0016 0.002 0.0016
1709914305.9712 0.003 0.000 0.0031 0.003 0.0031
1709914305.9795 0.003 0.000 0.0047 0.003 0.0047
1709914305.9867 0.002 0.000 0.0062 0.002 0.0062
1709914305.9945 0.002 -0.000 0.0062 0.002 0.0062
1709914306.0040 0.002 -0.000 0.0062 0.002 0.0062
1709914306.0118 0.002 -0.000 0.0062 0.002 0.0062
1709914306.0187 0.002 -0.000 0.0062 0.002 0.0062
1709914306.0272 0.002 -0.000 0.0062 0.002 0.0062
1709914306.0349 0.002 -0.000 0.0062 0.002 0.0062
1709914306.0433 0.002 -0.000 0.0062 0.002 0.0062
1709914306.0524 0.002 -0.000 0.0062 0.002 0.0062
1709914306.0587 0.002 -0.000 0.0062 0.002 0.0062
1709914306.0673 0.002 -0.000 0.0062 0.002 0.0062
1709914306.0759 0.002 -0.000 0.0047 0.002 0.0047
1709914306.0831 0.003 0.000 0.0047 0.003 0.0047
1709914306.0911 0.006 0.000 0.0031 0.006 0.0031
1709914306.0991 0.009 0.000 0.0047 0.009 0.0047
1709914306.1071 0.012 0.000 0.0078 0.012 0.0078
1709914306.1150 0.014 0.000 0.0078 0.014 0.0078
1709914306.1232 0.016 0.000 0.0047 0.016 0.0047
1709914306.1305 0.018 0.000 0.0016 0.018 0.0016
1709914306.1386 0.021 0.000 0.0031 0.021 0.0031
1709914306.1479 0.024 0.000 0.0062 0.024 0.0062
1709914306.1548 0.026 0.000 0.0047 0.026 0.0047
1709914306.1629 0.029 0.000 0.0016 0.029 0.0016
1709914306.1711 0.032 0.000 -0.0000 0.032 0.0000
1709914306.1786 0.035 0.000 0.0047 0.035 0.0047
1709914306.1866 0.038 0.000 0.0062 0.038 0.0062
1709914306.1960 0.041 0.000 0.0047 0.041 0.0047
1709914306.2032 0.043 0.000 0.0016 0.043 0.0016
1709914306.2108 0.046 0.000 -0.0000 0.046 0.0000
1709914306.2190 0.050 0.000 0.0016 0.050 0.0016
1709914306.2264 0.052 0.000 0.0031 0.052 0.0031
1709914306.2352 0.055 0.000 0.0047 0.055 0.0047
1709914306.2434 0.058 0.000 0.0016 0.058 0.0016
1709914306.2507 0.061 0.000 -0.0016 0.061 -0.0016
1709914306.2594 0.065 0.000 -0.0016 0.065 -0.0016
1709914306.2677 0.068 0.000 0.0031 0.068 0.0031
1709914306.2749 0.070 0.000 0.0047 0.070 0.0047
1709914306.2828 0.073 0.000 0.0016 0.073 0.0016
1709914306.2910 0.076 0.000 0.0016 0.076 0.0016
1709914306.2984 0.079 0.000 0.0047 0.079 0.0047
1709914306.3070 0.083 0.000 0.0047 0.083 0.0047
1709914306.3153 0.086 0.000 0.0047 0.086 0.0047
1709914306.3234 0.089 0.000 0.0031 0.089 0.0031
1709914306.3303 0.092 0.000 0.0047 0.092 0.0047
1709914306.3398 0.095 0.000 0.0062 0.095 0.0062
1709914306.3479 0.098 0.000 0.0062 0.098 0.0062
1709914306.3552 0.102 0.000 0.0062 0.102 0.0062
1709914306.3636 0.105 0.000 0.0078 0.105 0.0078
1709914306.3709 0.108 0.000 0.0062 0.108 0.0062
1709914306.3791 0.111 0.000 0.0062 0.111 0.0062
1709914306.3876 0.114 0.000 0.0062 0.114 0.0062
1709914306.3950 0.118 0.000 0.0062 0.118 0.0062
1709914306.4030 0.121 0.000 0.0062 0.121 0.0062
1709914306.4112 0.124 0.000 0.0078 0.124 0.0078
1709914306.4184 0.127 0.001 0.0078 0.127 0.0078
1709914306.4266 0.130 0.001 0.0062 0.130 0.0062
