% Pose without folding and reset (log_20240224_142835.197/log_pose_abs.txt)
% 1 	Time (sec)
% 2,3 	Position x,y (m)
% 4 	heading (rad)
% 5 	Driven distance (m) - signed
% 6 	Turned angle (rad) - signed
1708781315.8461 0.000 0.000 0.0000 0.000 0.0000
1708781315.8540 0.000 0.000 0.0000 0.000 0.0000
1708781315.8630 0.003 0.000 0.0000 0.003 0.0000
1708781315.8696 0.005 -0.000 -0.0016 0.005 -0.0016
1708781315.8769 0.006 -0.000 0.0000 0.006 0.0000
1708781315.8853 0.005 -0.000 0.0031 0.005 0.0031
1708781315.8929 0.004 -0.000 0.0016 0.004 0.0016
1708781315.9016 0.003 -0.000 -0.0016 0.003 -0.0016
1708781315.9091 0.003 -0.000 -0.0016 0.003 -0.0016
1708781315.9168 0.003 -0.000 -0.0016 0.003 -0.0016
1708781315.9250 0.004 -0.000 -0.0016 0.004 -0.0016
1708781315.9336 0.004 -0.000 -0.0016 0.004 -0.0016
1708781315.9417 0.004 -0.000 -0.0016 0.004 -0.0016
1708781315.9500 0.004 -0.000 -0.0016 0.004 -0.0016
1708781315.9578 0.004 -0.000 -0.0016 0.004 -0.0016
1708781315.9655 0.004 -0.000 -0.0016 0.004 -0.0016
1708781315.9736 0.004 -0.000 -0.0016 0.004 -0.0016
1708781315.9813 0.004 -0.000 -0.0016 0.004 -0.0016
1708781315.9898 0.004 -0.000 -0.0016 0.004 -0.0016
1708781315.9978 0.008 -0.000 -0.0031 0.008 -0.0031
1708781316.0056 0.014 -0.000 -0.0031 0.014 -0.0031
1708781316.0189 0.021 -0.000 -0.0016 0.021 -0.0016
1708781316.0221 0.027 -0.000 -0.0000 0.027 -0.0000
1708781316.0291 0.033 -0.000 0.0016 0.033 0.0016
1708781316.0371 0.036 -0.000 0.0047 0.036 0.0047
1708781316.0472 0.039 -0.000 0.0031 0.039 0.0031
1708781316.0538 0.043 -0.000 -0.0016 0.043 -0.0016
1708781316.0612 0.049 -0.000 -0.0062 0.049 -0.0062
1708781316.0690 0.056 -0.000 -0.0047 0.056 -0.0047
1708781316.0772 0.062 -0.000 -0.0016 0.062 -0.0016
1708781316.0856 0.068 -0.000 0.0016 0.068 0.0016
1708781316.0936 0.073 -0.000 0.0016 0.073 0.0016
1708781316.1019 0.080 -0.000 -0.0000 0.080 -0.0000
1708781316.1091 0.086 -0.000 -0.0016 0.086 -0.0016
1708781316.1178 0.093 -0.000 -0.0016 0.093 -0.0016
1708781316.1261 0.098 -0.000 -0.0000 0.098 -0.0000
1708781316.1335 0.104 -0.000 -0.0000 0.104 -0.0000
1708781316.1419 0.111 -0.000 -0.0000 0.111 -0.0000
1708781316.1491 0.117 -0.000 -0.0000 0.117 -0.0000
1708781316.1578 0.123 -0.000 -0.0000 0.123 -0.0000
1708781316.1661 0.128 -0.000 -0.0000 0.128 -0.0000
1708781316.1735 0.135 -0.000 -0.0000 0.135 -0.0000
1708781316.1813 0.141 -0.000 -0.0031 0.141 -0.0031
1708781316.1896 0.147 -0.000 -0.0016 0.147 -0.0016
1708781316.1979 0.154 -0.000 -0.0000 0.154 -0.0000
1708781316.2054 0.160 -0.000 -0.0000 0.160 -0.0000
1708781316.2137 0.167 -0.000 -0.0016 0.167 -0.0016
1708781316.2220 0.173 -0.000 -0.0031 0.173 -0.0031
1708781316.2296 0.179 -0.000 -0.0000 0.179 -0.0000
1708781316.2378 0.186 -0.000 -0.0000 0.186 -0.0000
1708781316.2460 0.192 -0.000 -0.0000 0.192 -0.0000
1708781316.2532 0.198 -0.000 -0.0016 0.198 -0.0016
1708781316.2615 0.204 -0.000 -0.0031 0.204 -0.0031
1708781316.2695 0.211 -0.000 -0.0016 0.211 -0.0016
1708781316.2770 0.218 -0.000 -0.0000 0.218 -0.0000
1708781316.2852 0.224 -0.000 -0.0016 0.224 -0.0016
1708781316.2934 0.230 -0.000 -0.0016 0.230 -0.0016
1708781316.3017 0.236 -0.000 -0.0016 0.236 -0.0016
1708781316.3096 0.243 -0.000 -0.0016 0.243 -0.0016
1708781316.3178 0.250 -0.000 -0.0031 0.250 -0.0031
1708781316.3259 0.256 -0.000 -0.0047 0.256 -0.0047
1708781316.3330 0.262 -0.000 -0.0016 0.262 -0.0016
1708781316.3420 0.269 -0.000 -0.0000 0.269 -0.0000
1708781316.3497 0.275 -0.000 -0.0031 0.275 -0.0031
1708781316.3582 0.282 -0.000 -0.0047 0.282 -0.0047
1708781316.3655 0.288 -0.000 -0.0031 0.288 -0.0031
1708781316.3731 0.294 -0.000 -0.0016 0.294 -0.0016
1708781316.3815 0.301 -0.000 -0.0000 0.301 -0.0000
1708781316.3897 0.306 -0.000 -0.0000 0.306 -0.0000
1708781316.3976 0.313 -0.000 -0.0016 0.313 -0.0016
1708781316.4054 0.320 -0.000 -0.0016 0.320 -0.0016
1708781316.4138 0.326 -0.000 -0.0016 0.326 -0.0016
1708781316.4217 0.332 -0.000 -0.0016 0.332 -0.0016
1708781316.4300 0.339 -0.000 -0.0016 0.339 -0.0016
1708781316.4372 0.345 -0.000 -0.0031 0.345 -0.0031
1708781316.4452 0.352 -0.000 -0.0016 0.352 -0.0016
1708781316.4540 0.358 -0.000 -0.0016 0.358 -0.0016
1708781316.4612 0.364 -0.000 -0.0031 0.364 -0.0031
1708781316.4691 0.370 -0.001 -0.0047 0.370 -0.0047
1708781316.4772 0.377 -0.001 -0.0000 0.377 -0.0000
1708781316.4855 0.383 -0.001 0.0016 0.383 0.0016
1708781316.4930 0.389 -0.001 -0.0031 0.389 -0.0031
1708781316.5018 0.395 -0.001 -0.0047 0.395 -0.0047
1708781316.5091 0.402 -0.001 -0.0016 0.402 -0.0016
1708781316.5178 0.409 -0.001 0.0016 0.409 0.0016
1708781316.5259 0.415 -0.001 -0.0000 0.415 -0.0000
1708781316.5330 0.422 -0.001 -0.0016 0.422 -0.0016
1708781316.5416 0.428 -0.001 -0.0000 0.428 -0.0000
1708781316.5498 0.434 -0.001 0.0031 0.434 0.0031
1708781316.5575 0.440 -0.001 0.0016 0.440 0.0016
1708781316.5659 0.447 -0.001 -0.0000 0.447 -0.0000
1708781316.5732 0.454 -0.001 0.0016 0.454 0.0016
1708781316.5814 0.460 -0.001 0.0031 0.460 0.0031
1708781316.5893 0.466 -0.001 0.0016 0.466 0.0016
1708781316.5976 0.472 -0.001 -0.0016 0.472 -0.0016
1708781316.6053 0.479 -0.001 -0.0031 0.479 -0.0031
1708781316.6130 0.485 -0.001 -0.0000 0.485 -0.0000
1708781316.6211 0.491 -0.001 0.0016 0.491 0.0016
1708781316.6291 0.497 -0.001 0.0016 0.497 0.0016
1708781316.6380 0.504 -0.001 -0.0016 0.504 -0.0016
1708781316.6452 0.511 -0.001 -0.0016 0.511 -0.0016
1708781316.6540 0.518 -0.001 -0.0016 0.518 -0.0016
1708781316.6617 0.524 -0.001 -0.0016 0.524 -0.0016
1708781316.6698 0.530 -0.001 -0.0016 0.530 -0.0016
1708781316.6780 0.536 -0.001 -0.0031 0.536 -0.0031
1708781316.6858 0.543 -0.001 -0.0047 0.543 -0.0047
1708781316.6930 0.550 -0.001 -0.0031 0.550 -0.0031
1708781316.7017 0.556 -0.001 -0.0016 0.556 -0.0016
1708781316.7096 0.561 -0.001 -0.0062 0.561 -0.0062
1708781316.7177 0.568 -0.001 -0.0062 0.568 -0.0062
1708781316.7257 0.575 -0.001 -0.0047 0.575 -0.0047
1708781316.7333 0.581 -0.001 -0.0047 0.581 -0.0047
1708781316.7415 0.587 -0.001 -0.0047 0.587 -0.0047
1708781316.7497 0.593 -0.001 -0.0031 0.593 -0.0031
1708781316.7579 0.600 -0.001 -0.0031 0.600 -0.0031
1708781316.7659 0.607 -0.001 -0.0031 0.607 -0.0031
1708781316.7732 0.613 -0.001 -0.0047 0.613 -0.0047
1708781316.7819 0.620 -0.001 -0.0047 0.620 -0.0047
1708781316.7891 0.625 -0.001 -0.0031 0.625 -0.0031
1708781316.7973 0.631 -0.001 -0.0031 0.631 -0.0031
1708781316.8058 0.638 -0.001 -0.0047 0.638 -0.0047
1708781316.8139 0.645 -0.001 -0.0031 0.645 -0.0031
1708781316.8210 0.651 -0.001 -0.0031 0.651 -0.0031
1708781316.8297 0.658 -0.001 -0.0031 0.658 -0.0031
1708781316.8387 0.663 -0.001 -0.0031 0.663 -0.0031
1708781316.8456 0.670 -0.001 -0.0016 0.670 -0.0016
1708781316.8538 0.677 -0.001 -0.0016 0.677 -0.0016
1708781316.8612 0.683 -0.001 -0.0016 0.683 -0.0016
1708781316.8694 0.689 -0.001 -0.0016 0.689 -0.0016
1708781316.8770 0.694 -0.001 -0.0000 0.694 -0.0000
1708781316.8852 0.701 -0.001 -0.0000 0.701 -0.0000
1708781316.8935 0.707 -0.001 -0.0016 0.707 -0.0016
1708781316.9017 0.714 -0.001 -0.0031 0.714 -0.0031
1708781316.9091 0.721 -0.001 -0.0000 0.721 -0.0000
1708781316.9175 0.727 -0.001 -0.0000 0.727 -0.0000
1708781316.9252 0.733 -0.001 0.0016 0.733 0.0016
1708781316.9335 0.739 -0.001 0.0016 0.739 0.0016
1708781316.9419 0.746 -0.001 -0.0000 0.746 -0.0000
1708781316.9496 0.753 -0.001 -0.0031 0.753 -0.0031
1708781316.9574 0.759 -0.001 -0.0016 0.759 -0.0016
1708781316.9658 0.766 -0.001 -0.0000 0.766 -0.0000
1708781316.9738 0.772 -0.001 0.0016 0.772 0.0016
1708781316.9820 0.778 -0.001 -0.0016 0.778 -0.0016
1708781316.9891 0.785 -0.001 -0.0031 0.785 -0.0031
1708781316.9980 0.791 -0.001 -0.0016 0.791 -0.0016
1708781317.0057 0.797 -0.001 -0.0016 0.797 -0.0016
1708781317.0130 0.803 -0.001 -0.0000 0.803 -0.0000
1708781317.0220 0.810 -0.001 -0.0000 0.810 -0.0000
1708781317.0292 0.816 -0.001 -0.0016 0.816 -0.0016
1708781317.0374 0.823 -0.001 -0.0031 0.823 -0.0031
1708781317.0452 0.829 -0.001 -0.0031 0.829 -0.0031
1708781317.0531 0.835 -0.001 -0.0016 0.835 -0.0016
1708781317.0615 0.842 -0.001 -0.0016 0.842 -0.0016
1708781317.0695 0.849 -0.001 -0.0047 0.849 -0.0047
1708781317.0787 0.855 -0.001 -0.0047 0.855 -0.0047
1708781317.0860 0.861 -0.001 -0.0031 0.861 -0.0031
1708781317.0946 0.868 -0.001 0.0016 0.868 0.0016
1708781317.1017 0.874 -0.001 -0.0000 0.874 -0.0000
1708781317.1100 0.880 -0.001 -0.0016 0.880 -0.0016
1708781317.1179 0.886 -0.001 -0.0031 0.886 -0.0031
1708781317.1258 0.892 -0.001 -0.0016 0.892 -0.0016
1708781317.1340 0.899 -0.001 -0.0000 0.899 -0.0000
1708781317.1418 0.906 -0.001 -0.0031 0.906 -0.0031
1708781317.1499 0.912 -0.001 -0.0031 0.912 -0.0031
1708781317.1577 0.918 -0.001 -0.0031 0.918 -0.0031
1708781317.1660 0.925 -0.001 -0.0000 0.925 -0.0000
1708781317.1731 0.931 -0.001 -0.0000 0.931 -0.0000
1708781317.1813 0.938 -0.001 -0.0016 0.938 -0.0016
1708781317.1890 0.944 -0.001 -0.0016 0.944 -0.0016
1708781317.1973 0.950 -0.001 -0.0016 0.950 -0.0016
1708781317.2051 0.957 -0.001 -0.0000 0.957 -0.0000
1708781317.2130 0.964 -0.001 0.0016 0.964 0.0016
1708781317.2214 0.970 -0.001 -0.0000 0.970 -0.0000
1708781317.2296 0.975 -0.001 -0.0000 0.975 -0.0000
1708781317.2373 0.982 -0.001 -0.0000 0.982 -0.0000
1708781317.2452 0.989 -0.001 -0.0016 0.989 -0.0016
1708781317.2531 0.995 -0.001 -0.0016 0.995 -0.0016
1708781317.2620 1.001 -0.001 -0.0000 1.001 -0.0000
1708781317.2692 1.007 -0.001 -0.0016 1.007 -0.0016
1708781317.2773 1.014 -0.002 -0.0016 1.014 -0.0016
1708781317.2851 1.020 -0.002 -0.0000 1.020 -0.0000
1708781317.2934 1.026 -0.002 -0.0000 1.026 -0.0000
1708781317.3011 1.032 -0.002 -0.0031 1.032 -0.0031
1708781317.3099 1.039 -0.002 -0.0016 1.039 -0.0016
1708781317.3171 1.046 -0.002 -0.0000 1.046 -0.0000
1708781317.3253 1.053 -0.002 -0.0016 1.053 -0.0016
1708781317.3330 1.058 -0.002 -0.0000 1.058 -0.0000
1708781317.3417 1.064 -0.002 -0.0000 1.064 -0.0000
1708781317.3500 1.071 -0.002 -0.0000 1.071 -0.0000
1708781317.3575 1.079 -0.002 -0.0016 1.079 -0.0016
1708781317.3658 1.085 -0.002 -0.0016 1.085 -0.0016
1708781317.3730 1.091 -0.002 -0.0000 1.091 -0.0000
1708781317.3820 1.097 -0.002 -0.0000 1.097 -0.0000
1708781317.3892 1.103 -0.002 -0.0016 1.103 -0.0016
1708781317.3972 1.110 -0.002 -0.0031 1.110 -0.0031
1708781317.4058 1.116 -0.002 -0.0016 1.116 -0.0016
1708781317.4140 1.122 -0.002 -0.0000 1.122 -0.0000
1708781317.4210 1.129 -0.002 -0.0000 1.129 -0.0000
1708781317.4299 1.135 -0.002 -0.0000 1.135 -0.0000
1708781317.4380 1.142 -0.002 -0.0016 1.142 -0.0016
1708781317.4452 1.148 -0.002 -0.0016 1.148 -0.0016
1708781317.4538 1.154 -0.002 -0.0016 1.154 -0.0016
1708781317.4620 1.160 -0.002 -0.0016 1.160 -0.0016
1708781317.4691 1.167 -0.002 -0.0016 1.167 -0.0016
1708781317.4779 1.173 -0.002 -0.0031 1.173 -0.0031
1708781317.4851 1.179 -0.002 -0.0031 1.179 -0.0031
1708781317.4933 1.186 -0.002 -0.0016 1.186 -0.0016
1708781317.5018 1.192 -0.002 -0.0016 1.192 -0.0016
1708781317.5091 1.199 -0.002 -0.0016 1.199 -0.0016
1708781317.5174 1.206 -0.002 -0.0031 1.206 -0.0031
1708781317.5251 1.212 -0.002 -0.0031 1.212 -0.0031
1708781317.5337 1.217 -0.002 -0.0016 1.217 -0.0016
1708781317.5420 1.223 -0.002 -0.0016 1.223 -0.0016
1708781317.5498 1.231 -0.002 -0.0016 1.231 -0.0016
1708781317.5577 1.238 -0.002 -0.0031 1.238 -0.0031
1708781317.5660 1.244 -0.002 -0.0016 1.244 -0.0016
1708781317.5738 1.250 -0.002 -0.0016 1.250 -0.0016
1708781317.5810 1.256 -0.002 -0.0016 1.256 -0.0016
1708781317.5891 1.262 -0.002 -0.0016 1.262 -0.0016
1708781317.5970 1.268 -0.002 -0.0016 1.268 -0.0016
1708781317.6058 1.275 -0.002 -0.0016 1.275 -0.0016
1708781317.6136 1.281 -0.002 -0.0031 1.281 -0.0031
1708781317.6217 1.289 -0.002 -0.0031 1.289 -0.0031
1708781317.6298 1.295 -0.002 -0.0016 1.295 -0.0016
1708781317.6379 1.301 -0.002 -0.0016 1.301 -0.0016
1708781317.6456 1.307 -0.002 -0.0031 1.307 -0.0031
1708781317.6535 1.313 -0.002 -0.0031 1.313 -0.0031
1708781317.6617 1.320 -0.002 -0.0031 1.320 -0.0031
1708781317.6691 1.326 -0.002 -0.0047 1.326 -0.0047
1708781317.6773 1.332 -0.002 -0.0031 1.332 -0.0031
1708781317.6856 1.338 -0.002 -0.0000 1.338 -0.0000
1708781317.6934 1.345 -0.002 -0.0000 1.345 -0.0000
1708781317.7022 1.352 -0.002 -0.0000 1.352 -0.0000
1708781317.7092 1.358 -0.002 -0.0016 1.358 -0.0016
1708781317.7172 1.365 -0.002 -0.0016 1.365 -0.0016
1708781317.7255 1.370 -0.002 -0.0000 1.370 -0.0000
1708781317.7337 1.377 -0.002 -0.0016 1.377 -0.0016
1708781317.7414 1.383 -0.002 -0.0016 1.383 -0.0016
1708781317.7494 1.390 -0.002 -0.0000 1.390 -0.0000
1708781317.7572 1.397 -0.002 -0.0000 1.397 -0.0000
1708781317.7653 1.402 -0.002 -0.0000 1.402 -0.0000
1708781317.7737 1.408 -0.002 -0.0000 1.408 -0.0000
1708781317.7819 1.415 -0.002 -0.0016 1.415 -0.0016
1708781317.7898 1.422 -0.002 -0.0031 1.422 -0.0031
1708781317.7978 1.429 -0.002 -0.0016 1.429 -0.0016
1708781317.8056 1.435 -0.002 -0.0000 1.435 -0.0000
1708781317.8134 1.441 -0.002 -0.0000 1.441 -0.0000
1708781317.8216 1.447 -0.002 -0.0016 1.447 -0.0016
1708781317.8298 1.454 -0.002 -0.0031 1.454 -0.0031
1708781317.8385 1.461 -0.002 -0.0016 1.461 -0.0016
1708781317.8455 1.467 -0.002 -0.0000 1.467 -0.0000
1708781317.8534 1.474 -0.002 -0.0016 1.474 -0.0016
1708781317.8613 1.479 -0.002 -0.0031 1.479 -0.0031
1708781317.8695 1.485 -0.002 -0.0016 1.485 -0.0016
1708781317.8776 1.491 -0.002 -0.0000 1.491 -0.0000
1708781317.8856 1.498 -0.002 -0.0016 1.498 -0.0016
1708781317.8931 1.505 -0.002 -0.0016 1.505 -0.0016
1708781317.9024 1.511 -0.002 -0.0031 1.511 -0.0031
1708781317.9092 1.517 -0.002 -0.0016 1.517 -0.0016
1708781317.9175 1.524 -0.002 -0.0016 1.524 -0.0016
1708781317.9257 1.530 -0.002 -0.0000 1.530 -0.0000
1708781317.9334 1.537 -0.002 -0.0000 1.537 -0.0000
1708781317.9416 1.543 -0.002 -0.0031 1.543 -0.0031
1708781317.9498 1.549 -0.002 -0.0062 1.549 -0.0062
1708781317.9573 1.555 -0.002 -0.0047 1.555 -0.0047
1708781317.9656 1.562 -0.002 -0.0016 1.562 -0.0016
1708781317.9737 1.569 -0.002 -0.0047 1.569 -0.0047
1708781317.9819 1.575 -0.002 -0.0078 1.575 -0.0078
1708781317.9890 1.581 -0.002 -0.0078 1.581 -0.0078
1708781317.9972 1.588 -0.002 -0.0031 1.588 -0.0031
1708781318.0057 1.594 -0.003 -0.0000 1.594 -0.0000
1708781318.0130 1.600 -0.003 -0.0031 1.600 -0.0031
1708781318.0215 1.607 -0.003 -0.0031 1.607 -0.0031
1708781318.0294 1.613 -0.003 -0.0016 1.613 -0.0016
1708781318.0377 1.619 -0.003 -0.0016 1.620 -0.0016
1708781318.0459 1.626 -0.003 -0.0047 1.626 -0.0047
1708781318.0534 1.633 -0.003 -0.0031 1.633 -0.0031
1708781318.0619 1.639 -0.003 -0.0016 1.639 -0.0016
1708781318.0700 1.645 -0.003 -0.0000 1.645 -0.0000
1708781318.0780 1.652 -0.003 -0.0000 1.652 -0.0000
1708781318.0852 1.659 -0.003 -0.0031 1.659 -0.0031
1708781318.0940 1.665 -0.003 -0.0016 1.665 -0.0016
1708781318.1025 1.670 -0.003 -0.0016 1.670 -0.0016
1708781318.1099 1.677 -0.003 0.0016 1.677 0.0016
1708781318.1172 1.684 -0.003 0.0016 1.684 0.0016
1708781318.1260 1.690 -0.003 0.0016 1.690 0.0016
1708781318.1331 1.696 -0.003 -0.0000 1.696 -0.0000
1708781318.1416 1.702 -0.003 -0.0000 1.702 -0.0000
1708781318.1495 1.708 -0.003 0.0016 1.708 0.0016
1708781318.1581 1.715 -0.003 0.0016 1.715 0.0016
1708781318.1660 1.722 -0.003 0.0016 1.722 0.0016
1708781318.1740 1.729 -0.003 -0.0016 1.729 -0.0016
1708781318.1812 1.735 -0.003 -0.0031 1.735 -0.0031
1708781318.1896 1.741 -0.003 0.0016 1.741 0.0016
1708781318.1975 1.746 -0.003 0.0031 1.746 0.0031
1708781318.2054 1.753 -0.003 0.0031 1.753 0.0031
1708781318.2140 1.760 -0.003 0.0031 1.760 0.0031
1708781318.2217 1.766 -0.003 -0.0016 1.766 -0.0016
1708781318.2301 1.773 -0.003 -0.0016 1.773 -0.0016
1708781318.2373 1.779 -0.003 0.0016 1.779 0.0016
1708781318.2451 1.785 -0.003 0.0016 1.785 0.0016
1708781318.2539 1.792 -0.003 -0.0000 1.792 -0.0000
1708781318.2618 1.798 -0.003 -0.0016 1.798 -0.0016
1708781318.2696 1.804 -0.003 -0.0016 1.804 -0.0016
1708781318.2777 1.811 -0.003 -0.0000 1.811 -0.0000
1708781318.2860 1.817 -0.003 -0.0000 1.817 -0.0000
1708781318.2938 1.823 -0.003 -0.0000 1.823 -0.0000
1708781318.3179 1.830 -0.003 -0.0016 1.830 -0.0016
1708781318.3198 1.837 -0.003 -0.0047 1.837 -0.0047
1708781318.3224 1.844 -0.003 -0.0062 1.844 -0.0062
1708781318.3252 1.850 -0.003 -0.0093 1.850 -0.0093
1708781318.3331 1.855 -0.003 -0.0124 1.855 -0.0124
1708781318.3418 1.858 -0.003 -0.0109 1.858 -0.0109
1708781318.3490 1.861 -0.003 -0.0062 1.861 -0.0062
1708781318.3580 1.866 -0.003 -0.0062 1.866 -0.0062
1708781318.3721 1.872 -0.003 -0.0078 1.872 -0.0078
1708781318.3748 1.880 -0.003 -0.0062 1.880 -0.0062
1708781318.3819 1.887 -0.003 -0.0047 1.887 -0.0047
1708781318.3893 1.892 -0.003 -0.0031 1.892 -0.0031
1708781318.3975 1.896 -0.003 0.0016 1.896 0.0016
1708781318.4051 1.900 -0.003 0.0031 1.900 0.0031
1708781318.4141 1.905 -0.003 0.0016 1.905 0.0016
1708781318.4214 1.912 -0.003 -0.0031 1.912 -0.0031
1708781318.4293 1.918 -0.003 -0.0078 1.918 -0.0078
1708781318.4381 1.923 -0.003 -0.0047 1.923 -0.0047
1708781318.4451 1.928 -0.003 -0.0031 1.928 -0.0031
1708781318.4552 1.934 -0.003 -0.0016 1.934 -0.0016
1708781318.4619 1.940 -0.003 -0.0016 1.940 -0.0016
1708781318.4690 1.946 -0.003 -0.0031 1.946 -0.0031
1708781318.4780 1.952 -0.003 -0.0016 1.952 -0.0016
1708781318.4857 1.957 -0.003 -0.0016 1.957 -0.0016
1708781318.4938 1.963 -0.003 -0.0000 1.963 -0.0000
1708781318.5026 1.970 -0.003 -0.0000 1.970 -0.0000
1708781318.5092 1.976 -0.003 -0.0000 1.976 -0.0000
1708781318.5182 1.983 -0.003 -0.0031 1.983 -0.0031
1708781318.5252 1.988 -0.003 -0.0016 1.988 -0.0016
1708781318.5340 1.994 -0.003 -0.0031 1.994 -0.0031
1708781318.5411 2.000 -0.003 -0.0031 2.000 -0.0031
1708781318.5493 2.006 -0.003 -0.0031 2.006 -0.0031
1708781318.5575 2.012 -0.003 -0.0031 2.012 -0.0031
1708781318.5654 2.018 -0.003 -0.0016 2.018 -0.0016
1708781318.5737 2.025 -0.003 -0.0016 2.025 -0.0016
1708781318.5813 2.031 -0.003 -0.0016 2.031 -0.0016
1708781318.5894 2.038 -0.003 -0.0031 2.038 -0.0031
1708781318.5976 2.044 -0.003 -0.0031 2.044 -0.0031
1708781318.6051 2.050 -0.003 -0.0016 2.050 -0.0016
1708781318.6172 2.056 -0.003 0.0016 2.056 0.0016
1708781318.6216 2.063 -0.003 -0.0000 2.063 -0.0000
1708781318.6296 2.069 -0.003 -0.0031 2.069 -0.0031
1708781318.6375 2.073 -0.003 -0.0031 2.073 -0.0031
1708781318.6457 2.077 -0.003 -0.0016 2.077 -0.0016
1708781318.6537 2.083 -0.003 -0.0016 2.083 -0.0016
1708781318.6618 2.090 -0.003 -0.0016 2.090 -0.0016
1708781318.6699 2.097 -0.003 -0.0016 2.097 -0.0016
1708781318.6775 2.103 -0.003 0.0016 2.103 0.0016
1708781318.6860 2.109 -0.003 0.0016 2.109 0.0016
1708781318.6932 2.116 -0.003 -0.0000 2.116 -0.0000
1708781318.7070 2.123 -0.003 -0.0016 2.123 -0.0016
1708781318.7099 2.130 -0.003 -0.0016 2.130 -0.0016
1708781318.7180 2.137 -0.003 -0.0016 2.137 -0.0016
1708781318.7255 2.143 -0.003 -0.0016 2.143 -0.0016
1708781318.7335 2.148 -0.003 0.0016 2.148 0.0016
1708781318.7417 2.152 -0.003 0.0016 2.152 0.0016
1708781318.7490 2.158 -0.003 0.0016 2.158 0.0016
1708781318.7576 2.163 -0.003 0.0016 2.163 0.0016
1708781318.7658 2.169 -0.003 -0.0000 2.169 -0.0000
1708781318.7734 2.175 -0.003 -0.0031 2.175 -0.0031
1708781318.7842 2.181 -0.003 -0.0000 2.181 -0.0000
1708781318.7901 2.187 -0.003 0.0031 2.187 0.0031
1708781318.7980 2.193 -0.003 0.0062 2.193 0.0062
1708781318.8052 2.198 -0.003 0.0047 2.198 0.0047
1708781318.8135 2.203 -0.003 0.0016 2.203 0.0016
1708781318.8212 2.209 -0.003 0.0016 2.209 0.0016
1708781318.8292 2.216 -0.003 -0.0016 2.216 -0.0016
1708781318.8380 2.222 -0.003 -0.0016 2.222 -0.0016
1708781318.8460 2.228 -0.003 0.0016 2.228 0.0016
1708781318.8539 2.235 -0.003 0.0031 2.235 0.0031
1708781318.8611 2.241 -0.003 0.0016 2.241 0.0016
1708781318.8700 2.247 -0.003 -0.0000 2.247 -0.0000
1708781318.8779 2.253 -0.003 -0.0000 2.253 -0.0000
1708781318.8851 2.259 -0.003 -0.0016 2.259 -0.0016
1708781318.8931 2.266 -0.003 0.0016 2.266 0.0016
1708781318.9019 2.272 -0.003 0.0016 2.272 0.0016
1708781318.9091 2.277 -0.003 -0.0016 2.277 -0.0016
1708781318.9227 2.284 -0.003 -0.0047 2.284 -0.0047
1708781318.9258 2.290 -0.003 -0.0016 2.290 -0.0016
1708781318.9331 2.297 -0.003 0.0016 2.297 0.0016
1708781318.9420 2.301 -0.003 0.0078 2.301 0.0078
1708781318.9491 2.306 -0.003 0.0093 2.306 0.0093
1708781318.9571 2.311 -0.003 0.0062 2.311 0.0062
