% Encoder logfile
% 1 	Time (sec)
% 2,3 	enc left, right
% 4,5 	encoder change left, right
1708347885.4388 0 0 0 0
1708347885.4464 0 0 0 0
1708347885.4547 0 0 0 0
1708347885.4615 0 0 0 0
1708347885.4696 0 0 0 0
1708347885.4782 0 0 0 0
1708347885.4861 0 0 0 0
1708347885.4936 0 0 0 0
1708347885.5013 0 0 0 0
1708347885.5115 0 0 0 0
1708347885.5184 0 0 0 0
1708347885.5275 0 0 0 0
1708347885.5337 0 0 0 0
1708347885.5460 0 0 0 0
1708347885.5504 0 0 0 0
1708347885.5591 0 0 0 0
1708347885.5661 0 1 0 1
1708347885.5742 3 3 3 2
1708347885.5818 7 8 4 5
1708347885.5903 11 10 4 2
1708347885.5985 12 10 1 0
1708347885.6095 14 13 2 3
1708347885.6136 17 15 3 2
1708347885.6219 21 19 4 4
1708347885.6303 23 23 2 4
1708347885.6385 28 26 5 3
1708347885.6458 33 32 5 6
1708347885.6538 38 38 5 6
1708347885.6621 43 43 5 5
1708347885.6698 49 48 6 5
1708347885.6776 56 54 7 6
1708347885.6915 62 61 6 7
1708347885.6945 68 67 6 6
1708347885.7064 76 73 8 6
1708347885.7204 82 80 6 7
1708347885.7221 85 82 3 2
1708347885.7368 90 88 5 6
1708347885.7385 95 94 5 6
1708347885.7471 98 99 3 5
1708347885.7500 99 102 1 3
1708347885.7603 101 104 2 2
1708347885.7665 108 105 7 1
1708347885.7743 116 111 8 6
1708347885.7825 122 118 6 7
1708347885.7898 124 124 2 6
1708347885.7982 128 127 4 3
1708347885.8064 135 129 7 2
1708347885.8145 143 134 8 5
1708347885.8228 147 141 4 7
1708347885.8302 150 146 3 5
1708347885.8380 154 150 4 4
1708347885.8465 162 155 8 5
1708347885.8571 170 161 8 6
1708347885.8653 174 168 4 7
1708347885.8734 179 175 5 7
1708347885.8777 186 181 7 6
1708347885.8856 193 187 7 6
1708347885.8948 196 190 3 3
1708347885.9021 200 196 4 6
1708347885.9102 206 204 6 8
1708347885.9184 215 211 9 7
1708347885.9257 222 217 7 6
1708347885.9337 228 222 6 5
1708347885.9415 232 227 4 5
1708347885.9502 238 235 6 8
1708347885.9584 246 244 8 9
1708347885.9663 253 250 7 6
1708347885.9739 258 255 5 5
1708347885.9822 263 261 5 6
1708347885.9901 270 269 7 8
1708347885.9976 278 276 8 7
1708347886.0058 285 280 7 4
1708347886.0138 289 285 4 5
1708347886.0223 294 291 5 6
1708347886.0295 302 300 8 9
1708347886.0383 310 308 8 8
1708347886.0459 316 313 6 5
1708347886.0541 321 318 5 5
1708347886.0618 328 324 7 6
1708347886.0700 334 332 6 8
1708347886.0776 341 339 7 7
1708347886.0862 348 344 7 5
1708347886.0950 354 349 6 5
1708347886.1015 359 356 5 7
1708347886.1104 366 364 7 8
1708347886.1176 374 369 8 5
1708347886.1259 381 374 7 5
1708347886.1345 385 381 4 7
1708347886.1435 390 389 5 8
1708347886.1502 397 395 7 6
1708347886.1581 406 401 9 6
1708347886.1656 411 407 5 6
1708347886.1743 415 413 4 6
1708347886.1823 421 420 6 7
1708347886.1905 430 428 9 8
1708347886.1979 437 433 7 5
1708347886.2074 442 438 5 5
1708347886.2141 446 445 4 7
1708347886.2222 452 453 6 8
1708347886.2298 460 459 8 6
1708347886.2399 465 464 5 5
1708347886.2457 469 470 4 6
1708347886.2540 476 477 7 7
1708347886.2623 485 483 9 6
1708347886.2696 492 488 7 5
1708347886.2782 497 494 5 6
1708347886.2863 502 502 5 8
1708347886.2952 509 509 7 7
1708347886.3020 517 515 8 6
1708347886.3103 524 520 7 5
1708347886.3179 528 524 4 4
1708347886.3284 533 530 5 6
1708347886.3340 541 539 8 9
1708347886.3422 549 546 8 7
1708347886.3496 554 550 5 4
1708347886.3576 557 554 3 4
1708347886.3660 563 561 6 7
1708347886.3738 572 570 9 9
1708347886.3821 580 577 8 7
1708347886.3904 585 582 5 5
1708347886.3977 589 586 4 4
1708347886.4059 594 592 5 6
1708347886.4142 603 600 9 8
1708347886.4219 611 607 8 7
1708347886.4304 617 613 6 6
1708347886.4379 622 618 5 5
1708347886.4455 629 624 7 6
1708347886.4548 636 632 7 8
1708347886.4624 642 638 6 6
1708347886.4704 648 644 6 6
1708347886.4776 655 650 7 6
1708347886.4860 661 656 6 6
1708347886.4950 667 663 6 7
1708347886.5027 673 670 6 7
1708347886.5103 680 676 7 6
1708347886.5177 688 682 8 6
1708347886.5271 693 688 5 6
1708347886.5361 697 695 4 7
1708347886.5429 702 703 5 8
1708347886.5508 710 710 8 7
1708347886.5585 718 714 8 4
1708347886.5664 725 718 7 4
1708347886.5750 729 724 4 6
1708347886.5821 733 733 4 9
1708347886.5900 740 742 7 9
1708347886.5986 748 747 8 5
1708347886.6056 756 751 8 4
1708347886.6137 761 757 5 6
1708347886.6224 766 764 5 7
1708347886.6304 772 772 6 8
1708347886.6383 779 778 7 6
1708347886.6460 788 783 9 5
1708347886.6539 794 789 6 6
1708347886.6619 798 796 4 7
1708347886.6700 804 803 6 7
1708347886.6783 812 808 8 5
1708347886.6863 820 813 8 5
1708347886.6951 825 820 5 7
1708347886.7024 829 828 4 8
1708347886.7098 836 834 7 6
1708347886.7180 844 839 8 5
1708347886.7265 850 846 6 7
1708347886.7344 855 854 5 8
1708347886.7417 862 861 7 7
1708347886.7497 869 866 7 5
1708347886.7577 875 870 6 4
1708347886.7661 879 877 4 7
1708347886.7745 886 885 7 8
1708347886.7825 894 892 8 7
1708347886.7898 902 897 8 5
1708347886.7979 907 902 5 5
1708347886.8065 911 909 4 7
1708347886.8138 917 917 6 8
1708347886.8222 926 923 9 6
1708347886.8301 933 928 7 5
1708347886.8385 938 934 5 6
1708347886.8465 943 942 5 8
1708347886.8543 950 950 7 8
1708347886.8616 958 955 8 5
1708347886.8700 964 960 6 5
1708347886.8779 969 966 5 6
1708347886.8863 975 974 6 8
1708347886.8952 982 982 7 8
1708347886.9021 990 988 8 6
1708347886.9104 997 993 7 5
1708347886.9178 1001 997 4 4
1708347886.9257 1006 1004 5 7
1708347886.9338 1013 1012 7 8
1708347886.9425 1022 1019 9 7
1708347886.9505 1028 1024 6 5
1708347886.9579 1032 1031 4 7
1708347886.9664 1035 1038 3 7
1708347886.9738 1040 1046 5 8
1708347886.9822 1047 1054 7 8
1708347886.9895 1051 1061 4 7
1708347886.9985 1054 1069 3 8
1708347887.0058 1058 1077 4 8
1708347887.0142 1063 1085 5 8
1708347887.0223 1067 1094 4 9
1708347887.0296 1070 1104 3 10
1708347887.0382 1073 1113 3 9
1708347887.0457 1077 1123 4 10
1708347887.0543 1079 1133 2 10
1708347887.0617 1082 1141 3 8
1708347887.0701 1086 1151 4 10
1708347887.0783 1090 1162 4 11
1708347887.0857 1092 1171 2 9
1708347887.0944 1094 1180 2 9
1708347887.1017 1099 1191 5 11
1708347887.1101 1105 1201 6 10
1708347887.1179 1108 1208 3 7
1708347887.1262 1109 1216 1 8
1708347887.1335 1113 1226 4 10
1708347887.1415 1118 1237 5 11
1708347887.1496 1124 1244 6 7
1708347887.1583 1127 1252 3 8
1708347887.1660 1129 1261 2 9
1708347887.1736 1134 1270 5 9
1708347887.1816 1142 1276 8 6
1708347887.1900 1147 1282 5 6
1708347887.1981 1153 1290 6 8
1708347887.2065 1159 1296 6 6
1708347887.2145 1166 1302 7 6
1708347887.2217 1173 1306 7 4
1708347887.2301 1180 1312 7 6
1708347887.2380 1187 1317 7 5
1708347887.2461 1195 1321 8 4
1708347887.2545 1203 1325 8 4
1708347887.2624 1210 1331 7 6
1708347887.2697 1219 1335 9 4
1708347887.2782 1230 1338 11 3
1708347887.2862 1239 1340 9 2
1708347887.2956 1248 1343 9 3
1708347887.3020 1258 1346 10 3
1708347887.3104 1269 1348 11 2
1708347887.3180 1280 1350 11 2
1708347887.3265 1291 1351 11 1
1708347887.3344 1303 1352 12 1
1708347887.3416 1315 1353 12 1
1708347887.3505 1327 1355 12 2
1708347887.3578 1339 1356 12 1
1708347887.3666 1351 1357 12 1
1708347887.3739 1363 1357 12 0
1708347887.3818 1376 1357 13 0
1708347887.3901 1388 1358 12 1
1708347887.3981 1401 1359 13 1
1708347887.4062 1414 1359 13 0
1708347887.4145 1427 1360 13 1
1708347887.4219 1440 1361 13 1
1708347887.4299 1452 1362 12 1
1708347887.4383 1464 1362 12 0
1708347887.4455 1476 1363 12 1
1708347887.4537 1489 1363 13 0
1708347887.4624 1500 1363 11 0
1708347887.4697 1509 1363 9 0
1708347887.4777 1522 1363 13 0
1708347887.4861 1536 1363 14 0
1708347887.4942 1548 1363 12 0
1708347887.5021 1559 1364 11 1
1708347887.5105 1570 1366 11 2
1708347887.5177 1582 1368 12 2
1708347887.5255 1595 1370 13 2
1708347887.5341 1606 1370 11 0
1708347887.5425 1615 1369 9 -1
1708347887.5500 1627 1370 12 1
1708347887.5576 1639 1372 12 2
1708347887.5660 1650 1376 11 4
1708347887.5738 1659 1377 9 1
1708347887.5822 1670 1378 11 1
1708347887.5898 1682 1381 12 3
1708347887.5985 1692 1384 10 3
1708347887.6059 1700 1387 8 3
1708347887.6145 1711 1389 11 2
1708347887.6219 1722 1391 11 2
1708347887.6297 1731 1394 9 3
1708347887.6376 1739 1398 8 4
1708347887.6456 1747 1401 8 3
1708347887.6536 1758 1404 11 3
1708347887.6620 1768 1407 10 3
1708347887.6703 1776 1411 8 4
1708347887.6778 1784 1415 8 4
1708347887.6865 1793 1418 9 3
1708347887.6946 1802 1422 9 4
1708347887.7027 1813 1427 11 5
1708347887.7103 1822 1431 9 4
1708347887.7179 1828 1434 6 3
1708347887.7266 1835 1438 7 4
1708347887.7336 1843 1443 8 5
1708347887.7419 1854 1448 11 5
1708347887.7499 1862 1452 8 4
1708347887.7584 1869 1456 7 4
1708347887.7659 1877 1460 8 4
1708347887.7735 1886 1466 9 6
1708347887.7822 1895 1471 9 5
1708347887.7904 1901 1475 6 4
1708347887.7985 1909 1478 8 3
1708347887.8058 1919 1482 10 4
1708347887.8141 1928 1488 9 6
1708347887.8217 1934 1494 6 6
1708347887.8298 1940 1498 6 4
1708347887.8380 1949 1500 9 2
1708347887.8459 1959 1505 10 5
1708347887.8545 1967 1511 8 6
1708347887.8625 1973 1516 6 5
1708347887.8698 1981 1520 8 4
1708347887.8783 1991 1523 10 3
1708347887.8862 1999 1528 8 5
1708347887.8943 2005 1535 6 7
1708347887.9016 2012 1540 7 5
1708347887.9099 2021 1544 9 4
1708347887.9183 2030 1547 9 3
1708347887.9257 2037 1552 7 5
1708347887.9342 2044 1559 7 7
1708347887.9424 2051 1564 7 5
1708347887.9497 2061 1567 10 3
1708347887.9581 2070 1572 9 5
1708347887.9658 2076 1578 6 6
1708347887.9745 2083 1584 7 6
1708347887.9821 2091 1587 8 3
1708347887.9905 2101 1590 10 3
1708347887.9975 2109 1596 8 6
1708347888.0058 2115 1603 6 7
1708347888.0136 2121 1608 6 5
1708347888.0226 2129 1612 8 4
1708347888.0302 2138 1617 9 5
1708347888.0378 2146 1623 8 6
1708347888.0462 2152 1629 6 6
1708347888.0537 2158 1633 6 4
1708347888.0623 2166 1638 8 5
1708347888.0699 2175 1644 9 6
1708347888.0782 2183 1650 8 6
1708347888.0857 2188 1655 5 5
1708347888.1006 2193 1661 5 6
1708347888.1040 2201 1667 8 6
1708347888.1108 2210 1673 9 6
1708347888.1183 2213 1676 3 3
1708347888.1263 2216 1680 3 4
1708347888.1339 2222 1686 6 6
1708347888.1418 2230 1695 8 9
1708347888.1500 2237 1702 7 7
1708347888.1586 2241 1706 4 4
1708347888.1664 2246 1710 5 4
1708347888.1737 2253 1717 7 7
1708347888.1824 2261 1725 8 8
1708347888.1900 2266 1730 5 5
1708347888.1980 2270 1735 4 5
1708347888.2066 2276 1742 6 7
1708347888.2145 2283 1749 7 7
1708347888.2219 2289 1756 6 7
1708347888.2357 2294 1762 5 6
1708347888.2376 2297 1768 3 6
1708347888.2459 2301 1774 4 6
1708347888.2543 2304 1775 3 1
1708347888.2620 2309 1778 5 3
1708347888.2701 2317 1787 8 9
1708347888.2776 2324 1796 7 9
1708347888.2860 2329 1803 5 7
1708347888.2946 2332 1806 3 3
1708347888.3018 2337 1811 5 5
1708347888.3102 2345 1820 8 9
1708347888.3231 2351 1828 6 8
1708347888.3282 2355 1833 4 5
1708347888.3369 2359 1837 4 4
1708347888.3426 2365 1843 6 6
1708347888.3496 2370 1850 5 7
1708347888.3580 2374 1857 4 7
1708347888.3663 2378 1863 4 6
1708347888.3739 2384 1869 6 6
1708347888.3824 2391 1877 7 8
1708347888.3896 2397 1883 6 6
1708347888.3977 2401 1890 4 7
1708347888.4062 2405 1897 4 7
1708347888.4141 2410 1905 5 8
1708347888.4226 2418 1912 8 7
1708347888.4298 2425 1917 7 5
1708347888.4387 2431 1924 6 7
1708347888.4460 2434 1932 3 8
1708347888.4546 2439 1941 5 9
1708347888.4626 2446 1946 7 5
1708347888.4698 2454 1951 8 5
1708347888.4783 2461 1958 7 7
1708347888.4863 2465 1966 4 8
1708347888.4944 2469 1974 4 8
1708347888.5019 2475 1980 6 6
1708347888.5101 2483 1985 8 5
1708347888.5185 2490 1991 7 6
1708347888.5262 2495 1998 5 7
1708347888.5344 2500 2007 5 9
1708347888.5419 2507 2014 7 7
1708347888.5502 2514 2019 7 5
1708347888.5583 2520 2024 6 5
1708347888.5658 2524 2031 4 7
1708347888.5743 2530 2039 6 8
1708347888.5825 2537 2045 7 6
1708347888.5900 2544 2051 7 6
1708347888.5984 2549 2058 5 7
1708347888.6061 2553 2066 4 8
1708347888.6143 2558 2073 5 7
1708347888.6226 2566 2078 8 5
1708347888.6296 2574 2084 8 6
1708347888.6392 2578 2092 4 8
1708347888.6461 2581 2100 3 8
1708347888.6537 2586 2106 5 6
1708347888.6618 2594 2111 8 5
1708347888.6701 2603 2118 9 7
1708347888.6778 2609 2126 6 8
1708347888.6861 2613 2134 4 8
1708347888.6947 2618 2140 5 6
1708347888.7025 2626 2145 8 5
1708347888.7101 2634 2152 8 7
1708347888.7176 2640 2160 6 8
1708347888.7264 2643 2166 3 6
1708347888.7336 2648 2172 5 6
1708347888.7416 2656 2178 8 6
1708347888.7500 2664 2185 8 7
1708347888.7582 2670 2193 6 8
1708347888.7665 2675 2199 5 6
1708347888.7746 2681 2205 6 6
1708347888.7822 2689 2212 8 7
1708347888.7904 2696 2220 7 8
1708347888.7977 2701 2226 5 6
1708347888.8064 2707 2230 6 4
1708347888.8136 2714 2236 7 6
1708347888.8224 2722 2244 8 8
1708347888.8297 2727 2251 5 7
1708347888.8379 2732 2256 5 5
1708347888.8463 2738 2261 6 5
1708347888.8536 2746 2267 8 6
1708347888.8620 2753 2275 7 8
1708347888.8764 2758 2282 5 7
1708347888.8794 2763 2288 5 6
1708347888.8857 2770 2293 7 5
1708347888.8944 2774 2295 4 2
1708347888.9017 2776 2299 2 4
1708347888.9102 2782 2306 6 7
1708347888.9181 2792 2315 10 9
1708347888.9263 2800 2321 8 6
1708347888.9345 2804 2325 4 4
1708347888.9425 2807 2330 3 5
1708347888.9496 2813 2337 6 7
1708347888.9580 2821 2344 8 7
1708347888.9666 2827 2349 6 5
1708347888.9739 2831 2354 4 5
1708347888.9826 2837 2361 6 7
1708347888.9906 2845 2368 8 7
1708347888.9977 2852 2374 7 6
1708347889.0062 2857 2379 5 5
1708347889.0144 2861 2384 4 5
1708347889.0217 2868 2391 7 7
1708347889.0331 2877 2399 9 8
1708347889.0378 2882 2404 5 5
1708347889.0459 2888 2409 6 5
1708347889.0547 2893 2414 5 5
