% Pose without folding and reset (log_20240224_131424.224/log_pose_abs.txt)
% 1 	Time (sec)
% 2,3 	Position x,y (m)
% 4 	heading (rad)
% 5 	Driven distance (m) - signed
% 6 	Turned angle (rad) - signed
1708776864.8733 0.000 0.000 0.0000 0.000 0.0000
1708776864.8808 0.000 0.000 0.0000 0.000 0.0000
1708776864.8887 0.000 0.000 0.0000 0.000 0.0000
1708776864.8963 0.000 0.000 0.0000 0.000 0.0000
1708776864.9044 0.000 0.000 0.0000 0.000 0.0000
1708776864.9125 0.000 0.000 0.0000 0.000 0.0000
1708776864.9201 0.000 0.000 0.0000 0.000 0.0000
1708776864.9281 0.000 0.000 0.0000 0.000 0.0000
1708776864.9356 0.000 0.000 0.0000 0.000 0.0000
1708776864.9443 0.000 0.000 0.0000 0.000 0.0000
1708776864.9527 0.000 0.000 0.0000 0.000 0.0000
1708776864.9601 0.000 0.000 0.0000 0.000 0.0000
1708776864.9680 0.000 0.000 0.0000 0.000 0.0000
1708776864.9764 0.000 0.000 0.0000 0.000 0.0000
1708776864.9841 0.000 0.000 0.0000 0.000 0.0000
1708776864.9919 0.000 0.000 0.0000 0.000 0.0000
1708776865.0000 0.003 0.000 0.0000 0.003 0.0000
1708776865.0082 0.006 -0.000 -0.0047 0.006 -0.0047
1708776865.0161 0.007 -0.000 -0.0047 0.007 -0.0047
1708776865.0242 0.009 -0.000 0.0000 0.009 0.0000
1708776865.0316 0.013 -0.000 -0.0016 0.013 -0.0016
1708776865.0402 0.016 -0.000 0.0000 0.016 0.0000
1708776865.0491 0.020 -0.000 -0.0016 0.020 -0.0016
1708776865.0569 0.024 -0.000 -0.0031 0.024 -0.0031
1708776865.0638 0.029 -0.000 -0.0031 0.029 -0.0031
1708776865.0720 0.033 -0.000 -0.0016 0.033 -0.0016
1708776865.0796 0.038 -0.000 -0.0000 0.038 -0.0000
1708776865.0888 0.043 -0.000 -0.0000 0.043 -0.0000
1708776865.0959 0.048 -0.000 -0.0016 0.048 -0.0016
1708776865.1036 0.054 -0.000 -0.0016 0.054 -0.0016
1708776865.1121 0.059 -0.000 -0.0000 0.059 -0.0000
1708776865.1204 0.065 -0.000 -0.0016 0.065 -0.0016
1708776865.1290 0.070 -0.000 -0.0016 0.070 -0.0016
1708776865.1371 0.076 -0.000 -0.0000 0.076 -0.0000
1708776865.1442 0.081 -0.000 -0.0016 0.081 -0.0016
1708776865.1525 0.087 -0.000 -0.0000 0.087 -0.0000
1708776865.1608 0.093 -0.000 0.0016 0.093 0.0016
1708776865.1687 0.098 -0.000 0.0016 0.098 0.0016
1708776865.1761 0.104 -0.000 0.0016 0.104 0.0016
1708776865.1847 0.109 -0.000 -0.0000 0.109 -0.0000
1708776865.1931 0.115 -0.000 -0.0000 0.115 -0.0000
1708776865.2003 0.121 -0.000 0.0016 0.121 0.0016
1708776865.2088 0.127 -0.000 0.0016 0.127 0.0016
1708776865.2161 0.133 -0.000 -0.0031 0.133 -0.0031
1708776865.2244 0.139 -0.000 -0.0000 0.139 -0.0000
1708776865.2328 0.145 -0.000 0.0031 0.145 0.0031
1708776865.2409 0.152 -0.000 0.0031 0.152 0.0031
1708776865.2489 0.158 -0.000 -0.0000 0.158 -0.0000
1708776865.2567 0.165 -0.000 -0.0000 0.165 -0.0000
1708776865.2648 0.171 -0.000 0.0016 0.171 0.0016
1708776865.2731 0.177 -0.000 -0.0000 0.177 -0.0000
1708776865.2808 0.182 -0.000 -0.0062 0.182 -0.0062
1708776865.2890 0.188 -0.000 -0.0093 0.188 -0.0093
1708776865.2965 0.194 -0.000 -0.0078 0.194 -0.0078
1708776865.3127 0.206 -0.000 -0.0093 0.206 -0.0093
1708776865.3283 0.211 -0.000 -0.0140 0.211 -0.0140
1708776865.3307 0.217 -0.000 -0.0171 0.217 -0.0171
1708776865.3373 0.222 -0.001 -0.0233 0.222 -0.0233
1708776865.3445 0.227 -0.001 -0.0310 0.227 -0.0310
1708776865.3524 0.230 -0.001 -0.0326 0.230 -0.0326
1708776865.3608 0.233 -0.001 -0.0310 0.233 -0.0310
1708776865.3690 0.239 -0.001 -0.0310 0.239 -0.0310
1708776865.3770 0.244 -0.001 -0.0341 0.244 -0.0341
1708776865.3851 0.250 -0.001 -0.0373 0.250 -0.0373
1708776865.3928 0.254 -0.002 -0.0404 0.254 -0.0404
1708776865.4001 0.259 -0.002 -0.0435 0.259 -0.0435
1708776865.4100 0.264 -0.002 -0.0466 0.264 -0.0466
1708776865.4166 0.268 -0.002 -0.0435 0.268 -0.0435
1708776865.4245 0.274 -0.002 -0.0450 0.274 -0.0450
1708776865.4326 0.279 -0.003 -0.0512 0.279 -0.0512
1708776865.4408 0.284 -0.003 -0.0574 0.284 -0.0574
1708776865.4485 0.289 -0.003 -0.0621 0.289 -0.0621
1708776865.4567 0.295 -0.004 -0.0605 0.295 -0.0605
1708776865.4653 0.300 -0.004 -0.0621 0.300 -0.0621
1708776865.4747 0.305 -0.004 -0.0667 0.305 -0.0667
1708776865.4810 0.311 -0.005 -0.0714 0.311 -0.0714
1708776865.4884 0.316 -0.005 -0.0745 0.316 -0.0745
1708776865.4964 0.321 -0.005 -0.0761 0.321 -0.0761
1708776865.5046 0.326 -0.006 -0.0792 0.326 -0.0792
1708776865.5129 0.331 -0.006 -0.0838 0.332 -0.0838
1708776865.5206 0.338 -0.007 -0.0885 0.338 -0.0885
1708776865.5288 0.344 -0.007 -0.0916 0.344 -0.0916
1708776865.5368 0.348 -0.008 -0.0947 0.349 -0.0947
1708776865.5449 0.354 -0.008 -0.0947 0.354 -0.0947
1708776865.5527 0.360 -0.009 -0.0962 0.360 -0.0962
1708776865.5601 0.365 -0.009 -0.1009 0.366 -0.1009
1708776865.5688 0.370 -0.010 -0.1024 0.371 -0.1024
1708776865.5760 0.375 -0.010 -0.1040 0.376 -0.1040
1708776865.5848 0.381 -0.011 -0.1040 0.381 -0.1040
1708776865.5928 0.387 -0.012 -0.1056 0.387 -0.1056
1708776865.6000 0.393 -0.012 -0.1087 0.393 -0.1087
1708776865.6082 0.398 -0.013 -0.1133 0.399 -0.1133
1708776865.6161 0.403 -0.013 -0.1133 0.403 -0.1133
1708776865.6244 0.408 -0.014 -0.1118 0.409 -0.1118
1708776865.6324 0.414 -0.015 -0.1087 0.415 -0.1087
1708776865.6407 0.420 -0.015 -0.1102 0.421 -0.1102
1708776865.6480 0.425 -0.016 -0.1149 0.426 -0.1149
1708776865.6563 0.430 -0.016 -0.1164 0.431 -0.1164
1708776865.6642 0.436 -0.017 -0.1149 0.437 -0.1149
1708776865.6725 0.442 -0.018 -0.1102 0.443 -0.1102
1708776865.6808 0.447 -0.018 -0.1071 0.448 -0.1071
1708776865.6888 0.453 -0.019 -0.1071 0.454 -0.1071
1708776865.6970 0.459 -0.020 -0.1056 0.459 -0.1056
1708776865.7041 0.464 -0.020 -0.1009 0.465 -0.1009
1708776865.7131 0.470 -0.021 -0.0962 0.471 -0.0962
1708776865.7203 0.475 -0.021 -0.0947 0.476 -0.0947
1708776865.7286 0.481 -0.022 -0.0947 0.482 -0.0947
1708776865.7363 0.487 -0.022 -0.0931 0.488 -0.0931
1708776865.7445 0.492 -0.023 -0.0869 0.493 -0.0869
1708776865.7528 0.497 -0.023 -0.0854 0.498 -0.0854
1708776865.7608 0.503 -0.024 -0.0854 0.504 -0.0854
1708776865.7690 0.509 -0.024 -0.0869 0.510 -0.0869
1708776865.7762 0.515 -0.025 -0.0854 0.516 -0.0854
1708776865.7847 0.520 -0.025 -0.0823 0.521 -0.0823
1708776865.7928 0.524 -0.026 -0.0792 0.526 -0.0792
1708776865.8003 0.530 -0.026 -0.0776 0.531 -0.0776
1708776865.8082 0.536 -0.027 -0.0776 0.538 -0.0776
1708776865.8163 0.541 -0.027 -0.0730 0.543 -0.0730
1708776865.8246 0.546 -0.027 -0.0699 0.548 -0.0699
1708776865.8322 0.552 -0.028 -0.0636 0.554 -0.0636
1708776865.8403 0.559 -0.028 -0.0636 0.560 -0.0636
1708776865.8486 0.564 -0.028 -0.0652 0.565 -0.0652
1708776865.8564 0.569 -0.029 -0.0605 0.571 -0.0605
1708776865.8647 0.575 -0.029 -0.0559 0.576 -0.0559
1708776865.8729 0.581 -0.029 -0.0512 0.582 -0.0512
1708776865.8803 0.587 -0.030 -0.0481 0.588 -0.0481
1708776865.8885 0.592 -0.030 -0.0450 0.594 -0.0450
1708776865.8968 0.597 -0.030 -0.0419 0.598 -0.0419
1708776865.9047 0.603 -0.030 -0.0373 0.604 -0.0373
1708776865.9128 0.609 -0.031 -0.0326 0.610 -0.0326
1708776865.9206 0.614 -0.031 -0.0310 0.615 -0.0310
1708776865.9283 0.619 -0.031 -0.0264 0.621 -0.0264
1708776865.9362 0.626 -0.031 -0.0186 0.627 -0.0186
1708776865.9445 0.631 -0.031 -0.0155 0.633 -0.0155
1708776865.9529 0.637 -0.031 -0.0109 0.638 -0.0109
1708776865.9602 0.642 -0.031 -0.0047 0.644 -0.0047
1708776865.9683 0.648 -0.031 0.0016 0.649 0.0016
1708776865.9761 0.653 -0.031 0.0078 0.654 0.0078
1708776865.9840 0.658 -0.031 0.0124 0.660 0.0124
1708776865.9928 0.664 -0.031 0.0171 0.666 0.0171
1708776866.0006 0.670 -0.031 0.0233 0.672 0.0233
1708776866.0086 0.676 -0.031 0.0295 0.677 0.0295
1708776866.0166 0.681 -0.031 0.0341 0.682 0.0341
1708776866.0244 0.686 -0.030 0.0404 0.688 0.0404
1708776866.0323 0.692 -0.030 0.0435 0.694 0.0435
1708776866.0406 0.698 -0.030 0.0450 0.700 0.0450
1708776866.0484 0.703 -0.030 0.0497 0.705 0.0497
1708776866.0567 0.709 -0.029 0.0559 0.710 0.0559
1708776866.0643 0.714 -0.029 0.0605 0.716 0.0605
1708776866.0722 0.721 -0.029 0.0621 0.722 0.0621
1708776866.0806 0.726 -0.028 0.0667 0.727 0.0667
1708776866.0881 0.731 -0.028 0.0699 0.732 0.0699
1708776866.0969 0.736 -0.028 0.0699 0.737 0.0699
1708776866.1041 0.742 -0.027 0.0730 0.744 0.0730
1708776866.1124 0.749 -0.027 0.0761 0.750 0.0761
1708776866.1204 0.754 -0.026 0.0745 0.756 0.0745
1708776866.1293 0.759 -0.026 0.0745 0.760 0.0745
1708776866.1364 0.765 -0.026 0.0761 0.766 0.0761
1708776866.1450 0.771 -0.025 0.0776 0.772 0.0776
1708776866.1522 0.776 -0.025 0.0792 0.778 0.0792
1708776866.1605 0.782 -0.024 0.0792 0.783 0.0792
1708776866.1684 0.787 -0.024 0.0792 0.789 0.0792
1708776866.1772 0.793 -0.023 0.0792 0.794 0.0792
1708776866.1843 0.798 -0.023 0.0807 0.800 0.0807
1708776866.1921 0.804 -0.022 0.0823 0.806 0.0823
1708776866.2003 0.809 -0.022 0.0838 0.811 0.0838
1708776866.2090 0.814 -0.022 0.0807 0.816 0.0807
1708776866.2164 0.820 -0.021 0.0792 0.822 0.0792
1708776866.2247 0.826 -0.021 0.0807 0.828 0.0807
1708776866.2326 0.832 -0.020 0.0838 0.833 0.0838
1708776866.2403 0.837 -0.020 0.0823 0.839 0.0823
1708776866.2485 0.843 -0.019 0.0792 0.844 0.0792
1708776866.2569 0.848 -0.019 0.0776 0.850 0.0776
1708776866.2647 0.854 -0.018 0.0792 0.856 0.0792
1708776866.2730 0.860 -0.018 0.0792 0.862 0.0792
1708776866.2810 0.866 -0.017 0.0776 0.868 0.0776
1708776866.2887 0.871 -0.017 0.0745 0.872 0.0745
1708776866.2969 0.876 -0.017 0.0714 0.878 0.0714
1708776866.3047 0.882 -0.016 0.0683 0.883 0.0683
1708776866.3125 0.888 -0.016 0.0652 0.889 0.0652
1708776866.3207 0.893 -0.016 0.0636 0.895 0.0636
1708776866.3283 0.898 -0.015 0.0636 0.900 0.0636
1708776866.3368 0.904 -0.015 0.0621 0.906 0.0621
1708776866.3441 0.910 -0.015 0.0543 0.911 0.0543
1708776866.3529 0.915 -0.014 0.0497 0.917 0.0497
1708776866.3608 0.921 -0.014 0.0481 0.923 0.0481
1708776866.3687 0.927 -0.014 0.0466 0.929 0.0466
1708776866.3769 0.933 -0.013 0.0435 0.935 0.0435
1708776866.3845 0.938 -0.013 0.0357 0.940 0.0357
1708776866.3928 0.944 -0.013 0.0326 0.945 0.0326
1708776866.4001 0.949 -0.013 0.0310 0.951 0.0310
1708776866.4089 0.955 -0.013 0.0295 0.957 0.0295
1708776866.4161 0.960 -0.013 0.0233 0.962 0.0233
1708776866.4244 0.966 -0.012 0.0171 0.968 0.0171
1708776866.4329 0.971 -0.012 0.0140 0.973 0.0140
1708776866.4401 0.977 -0.012 0.0109 0.979 0.0109
1708776866.4484 0.983 -0.012 0.0078 0.985 0.0078
1708776866.4562 0.988 -0.012 0.0047 0.990 0.0047
1708776866.4643 0.993 -0.012 -0.0016 0.995 -0.0016
1708776866.4726 0.999 -0.012 -0.0109 1.001 -0.0109
1708776866.4808 1.004 -0.012 -0.0124 1.006 -0.0124
1708776866.4891 1.011 -0.012 -0.0093 1.013 -0.0093
1708776866.4963 1.016 -0.012 -0.0124 1.018 -0.0124
1708776866.5041 1.022 -0.012 -0.0217 1.024 -0.0217
1708776866.5122 1.026 -0.013 -0.0264 1.028 -0.0264
1708776866.5206 1.032 -0.013 -0.0279 1.034 -0.0279
1708776866.5285 1.038 -0.013 -0.0326 1.040 -0.0326
1708776866.5364 1.044 -0.013 -0.0388 1.046 -0.0388
1708776866.5447 1.049 -0.013 -0.0419 1.051 -0.0419
1708776866.5526 1.054 -0.014 -0.0450 1.056 -0.0450
1708776866.5602 1.060 -0.014 -0.0481 1.062 -0.0481
1708776866.5686 1.066 -0.014 -0.0528 1.068 -0.0528
1708776866.5764 1.071 -0.014 -0.0574 1.073 -0.0574
1708776866.5847 1.077 -0.015 -0.0621 1.079 -0.0621
1708776866.5930 1.083 -0.015 -0.0652 1.085 -0.0652
1708776866.6007 1.089 -0.016 -0.0699 1.091 -0.0699
1708776866.6091 1.094 -0.016 -0.0730 1.096 -0.0730
1708776866.6167 1.100 -0.016 -0.0761 1.102 -0.0761
1708776866.6245 1.105 -0.017 -0.0807 1.107 -0.0807
1708776866.6324 1.111 -0.017 -0.0854 1.113 -0.0854
1708776866.6406 1.116 -0.018 -0.0869 1.118 -0.0869
1708776866.6484 1.122 -0.018 -0.0885 1.124 -0.0885
1708776866.6566 1.127 -0.019 -0.0931 1.129 -0.0931
1708776866.6649 1.133 -0.019 -0.0962 1.135 -0.0962
1708776866.6728 1.139 -0.020 -0.1009 1.141 -0.1009
1708776866.6807 1.144 -0.020 -0.1024 1.147 -0.1024
1708776866.6893 1.150 -0.021 -0.1040 1.152 -0.1040
1708776866.6971 1.155 -0.021 -0.1071 1.157 -0.1071
1708776866.7042 1.161 -0.022 -0.1118 1.163 -0.1118
1708776866.7125 1.166 -0.023 -0.1164 1.168 -0.1164
1708776866.7203 1.171 -0.023 -0.1164 1.173 -0.1164
1708776866.7287 1.176 -0.024 -0.1195 1.179 -0.1195
1708776866.7365 1.182 -0.025 -0.1195 1.185 -0.1195
1708776866.7444 1.189 -0.025 -0.1242 1.191 -0.1242
1708776866.7531 1.194 -0.026 -0.1273 1.196 -0.1273
1708776866.7604 1.199 -0.027 -0.1304 1.201 -0.1304
1708776866.7683 1.204 -0.027 -0.1319 1.207 -0.1319
1708776866.7764 1.210 -0.028 -0.1350 1.213 -0.1350
1708776866.7843 1.216 -0.029 -0.1397 1.219 -0.1397
1708776866.7922 1.221 -0.030 -0.1413 1.224 -0.1413
1708776866.8005 1.227 -0.031 -0.1444 1.229 -0.1444
1708776866.8083 1.232 -0.031 -0.1459 1.235 -0.1459
1708776866.8161 1.238 -0.032 -0.1506 1.241 -0.1506
1708776866.8242 1.244 -0.033 -0.1537 1.247 -0.1537
1708776866.8322 1.249 -0.034 -0.1568 1.252 -0.1568
1708776866.8411 1.255 -0.035 -0.1599 1.258 -0.1599
1708776866.8482 1.260 -0.036 -0.1614 1.264 -0.1614
1708776866.8566 1.266 -0.037 -0.1645 1.270 -0.1645
1708776866.8644 1.272 -0.038 -0.1676 1.275 -0.1676
1708776866.8730 1.277 -0.038 -0.1723 1.280 -0.1723
1708776866.8805 1.282 -0.039 -0.1785 1.286 -0.1785
1708776866.8882 1.288 -0.041 -0.1801 1.292 -0.1801
1708776866.8969 1.293 -0.042 -0.1816 1.297 -0.1816
1708776866.9046 1.298 -0.042 -0.1863 1.302 -0.1863
1708776866.9122 1.304 -0.044 -0.1940 1.308 -0.1940
1708776866.9204 1.310 -0.045 -0.2002 1.314 -0.2002
1708776866.9291 1.315 -0.046 -0.2033 1.319 -0.2033
1708776866.9368 1.320 -0.047 -0.2096 1.325 -0.2096
1708776866.9450 1.326 -0.048 -0.2173 1.330 -0.2173
1708776866.9526 1.331 -0.049 -0.2220 1.336 -0.2220
1708776866.9607 1.337 -0.051 -0.2282 1.342 -0.2282
1708776866.9684 1.342 -0.052 -0.2359 1.347 -0.2359
1708776866.9767 1.348 -0.053 -0.2422 1.353 -0.2422
1708776866.9842 1.353 -0.054 -0.2515 1.358 -0.2515
1708776866.9925 1.358 -0.056 -0.2608 1.364 -0.2608
1708776867.0007 1.363 -0.057 -0.2685 1.369 -0.2685
1708776867.0084 1.369 -0.059 -0.2763 1.375 -0.2763
1708776867.0169 1.375 -0.061 -0.2872 1.381 -0.2872
1708776867.0241 1.380 -0.062 -0.2949 1.386 -0.2949
1708776867.0326 1.385 -0.064 -0.3042 1.392 -0.3042
1708776867.0412 1.390 -0.065 -0.3136 1.397 -0.3136
1708776867.0484 1.396 -0.067 -0.3244 1.403 -0.3244
1708776867.0562 1.401 -0.069 -0.3337 1.409 -0.3337
1708776867.0647 1.406 -0.071 -0.3415 1.413 -0.3415
1708776867.0721 1.411 -0.072 -0.3524 1.419 -0.3524
1708776867.0806 1.417 -0.075 -0.3679 1.425 -0.3679
1708776867.0890 1.422 -0.077 -0.3803 1.431 -0.3803
1708776867.0971 1.427 -0.079 -0.3912 1.436 -0.3912
1708776867.1050 1.432 -0.081 -0.4036 1.442 -0.4036
1708776867.1122 1.437 -0.083 -0.4160 1.447 -0.4160
1708776867.1206 1.442 -0.085 -0.4300 1.452 -0.4300
1708776867.1286 1.447 -0.087 -0.4455 1.458 -0.4455
1708776867.1366 1.452 -0.090 -0.4595 1.464 -0.4595
1708776867.1442 1.458 -0.093 -0.4719 1.470 -0.4719
1708776867.1525 1.463 -0.095 -0.4843 1.476 -0.4843
1708776867.1601 1.467 -0.098 -0.4998 1.481 -0.4998
1708776867.1684 1.472 -0.101 -0.5169 1.486 -0.5169
1708776867.1762 1.477 -0.103 -0.5293 1.492 -0.5293
1708776867.1851 1.482 -0.106 -0.5433 1.498 -0.5433
1708776867.1923 1.486 -0.109 -0.5573 1.503 -0.5573
1708776867.2003 1.491 -0.112 -0.5743 1.509 -0.5743
1708776867.2086 1.496 -0.115 -0.5899 1.514 -0.5899
1708776867.2169 1.501 -0.118 -0.6038 1.520 -0.6038
1708776867.2247 1.505 -0.122 -0.6209 1.526 -0.6209
1708776867.2325 1.510 -0.125 -0.6395 1.531 -0.6395
1708776867.2408 1.514 -0.128 -0.6551 1.537 -0.6551
1708776867.2489 1.519 -0.132 -0.6659 1.542 -0.6659
1708776867.2562 1.523 -0.136 -0.6799 1.548 -0.6799
1708776867.2644 1.528 -0.139 -0.6970 1.554 -0.6970
1708776867.2722 1.532 -0.142 -0.7125 1.559 -0.7125
1708776867.2807 1.536 -0.146 -0.7265 1.565 -0.7265
1708776867.2881 1.540 -0.150 -0.7404 1.570 -0.7404
1708776867.2970 1.545 -0.154 -0.7528 1.576 -0.7528
1708776867.3042 1.548 -0.158 -0.7668 1.582 -0.7668
1708776867.3125 1.552 -0.161 -0.7839 1.587 -0.7839
1708776867.3203 1.556 -0.166 -0.7979 1.593 -0.7979
1708776867.3285 1.560 -0.170 -0.8103 1.599 -0.8103
1708776867.3364 1.564 -0.174 -0.8227 1.604 -0.8227
1708776867.3441 1.568 -0.178 -0.8398 1.610 -0.8398
1708776867.3524 1.571 -0.182 -0.8568 1.615 -0.8568
1708776867.3608 1.575 -0.186 -0.8693 1.621 -0.8693
1708776867.3682 1.579 -0.191 -0.8817 1.627 -0.8817
1708776867.3764 1.583 -0.195 -0.8957 1.633 -0.8957
1708776867.3842 1.586 -0.200 -0.9081 1.638 -0.9081
1708776867.3922 1.589 -0.204 -0.9220 1.643 -0.9220
1708776867.4003 1.592 -0.208 -0.9360 1.649 -0.9360
1708776867.4089 1.596 -0.213 -0.9484 1.655 -0.9484
1708776867.4164 1.599 -0.217 -0.9608 1.660 -0.9608
1708776867.4249 1.602 -0.222 -0.9733 1.666 -0.9733
1708776867.4330 1.605 -0.226 -0.9857 1.671 -0.9857
1708776867.4404 1.608 -0.231 -0.9997 1.677 -0.9997
1708776867.4487 1.612 -0.236 -1.0090 1.683 -1.0090
1708776867.4567 1.615 -0.241 -1.0198 1.689 -1.0198
1708776867.4647 1.617 -0.246 -1.0354 1.694 -1.0354
1708776867.4731 1.620 -0.250 -1.0447 1.699 -1.0447
1708776867.4802 1.623 -0.255 -1.0586 1.705 -1.0586
1708776867.4882 1.626 -0.261 -1.0742 1.711 -1.0742
1708776867.4970 1.628 -0.265 -1.0866 1.716 -1.0866
1708776867.5043 1.631 -0.270 -1.0959 1.722 -1.0959
1708776867.5128 1.633 -0.275 -1.1083 1.728 -1.1083
1708776867.5203 1.636 -0.280 -1.1238 1.733 -1.1238
1708776867.5287 1.638 -0.285 -1.1394 1.739 -1.1394
1708776867.5363 1.640 -0.290 -1.1502 1.744 -1.1502
1708776867.5446 1.643 -0.295 -1.1611 1.749 -1.1611
1708776867.5526 1.645 -0.300 -1.1751 1.755 -1.1751
1708776867.5607 1.647 -0.306 -1.1890 1.761 -1.1890
1708776867.5682 1.649 -0.310 -1.1999 1.766 -1.1999
1708776867.5767 1.651 -0.316 -1.2092 1.772 -1.2092
1708776867.5844 1.653 -0.321 -1.2216 1.777 -1.2216
1708776867.5927 1.655 -0.326 -1.2356 1.783 -1.2356
1708776867.6001 1.656 -0.331 -1.2480 1.788 -1.2480
1708776867.6082 1.658 -0.337 -1.2573 1.794 -1.2573
1708776867.6165 1.660 -0.342 -1.2620 1.799 -1.2620
1708776867.6250 1.662 -0.347 -1.2713 1.805 -1.2713
1708776867.6326 1.663 -0.353 -1.2837 1.811 -1.2837
1708776867.6409 1.665 -0.358 -1.2961 1.816 -1.2961
1708776867.6483 1.666 -0.363 -1.3054 1.822 -1.3054
1708776867.6562 1.668 -0.368 -1.3148 1.827 -1.3148
1708776867.6646 1.669 -0.374 -1.3256 1.833 -1.3256
1708776867.6729 1.670 -0.380 -1.3365 1.839 -1.3365
1708776867.6809 1.672 -0.386 -1.3427 1.845 -1.3427
1708776867.6882 1.673 -0.391 -1.3505 1.850 -1.3505
1708776867.6967 1.674 -0.396 -1.3613 1.856 -1.3613
1708776867.7047 1.675 -0.401 -1.3691 1.861 -1.3691
1708776867.7130 1.676 -0.407 -1.3737 1.867 -1.3737
1708776867.7204 1.678 -0.413 -1.3831 1.873 -1.3831
1708776867.7284 1.679 -0.418 -1.3908 1.878 -1.3908
1708776867.7362 1.679 -0.423 -1.3955 1.883 -1.3955
1708776867.7446 1.680 -0.429 -1.3986 1.888 -1.3986
1708776867.7525 1.681 -0.434 -1.4032 1.894 -1.4032
1708776867.7607 1.682 -0.440 -1.4094 1.900 -1.4094
1708776867.7689 1.683 -0.446 -1.4141 1.906 -1.4141
1708776867.7761 1.684 -0.451 -1.4172 1.911 -1.4172
1708776867.7851 1.685 -0.456 -1.4203 1.917 -1.4203
1708776867.7923 1.686 -0.462 -1.4265 1.922 -1.4265
1708776867.8005 1.687 -0.468 -1.4343 1.928 -1.4343
1708776867.8089 1.687 -0.473 -1.4374 1.934 -1.4374
1708776867.8169 1.688 -0.478 -1.4405 1.939 -1.4405
1708776867.8245 1.689 -0.484 -1.4451 1.944 -1.4452
1708776867.8327 1.689 -0.490 -1.4529 1.950 -1.4529
1708776867.8401 1.690 -0.495 -1.4560 1.956 -1.4560
1708776867.8483 1.691 -0.500 -1.4560 1.961 -1.4560
1708776867.8568 1.691 -0.506 -1.4591 1.966 -1.4591
1708776867.8644 1.692 -0.511 -1.4653 1.972 -1.4653
1708776867.8723 1.692 -0.517 -1.4700 1.978 -1.4700
1708776867.8810 1.693 -0.523 -1.4746 1.983 -1.4746
1708776867.8890 1.693 -0.528 -1.4793 1.988 -1.4793
1708776867.8961 1.694 -0.533 -1.4840 1.994 -1.4840
1708776867.9045 1.694 -0.540 -1.4886 2.000 -1.4886
1708776867.9131 1.695 -0.545 -1.4917 2.006 -1.4917
1708776867.9210 1.695 -0.550 -1.4964 2.011 -1.4964
1708776867.9284 1.696 -0.556 -1.5026 2.017 -1.5026
1708776867.9367 1.696 -0.562 -1.5041 2.023 -1.5041
1708776867.9448 1.696 -0.567 -1.5072 2.028 -1.5072
1708776867.9527 1.697 -0.572 -1.5103 2.033 -1.5103
1708776867.9601 1.697 -0.578 -1.5197 2.039 -1.5197
1708776867.9682 1.697 -0.584 -1.5274 2.045 -1.5274
1708776867.9761 1.698 -0.589 -1.5305 2.050 -1.5305
1708776867.9848 1.698 -0.595 -1.5336 2.056 -1.5336
1708776867.9929 1.698 -0.600 -1.5398 2.061 -1.5398
1708776868.0002 1.698 -0.606 -1.5507 2.067 -1.5507
1708776868.0088 1.698 -0.612 -1.5569 2.073 -1.5569
