% Pose without folding and reset (log_20240308_171742.426/log_pose_abs.txt)
% 1 	Time (sec)
% 2,3 	Position x,y (m)
% 4 	heading (rad)
% 5 	Driven distance (m) - signed
% 6 	Turned angle (rad) - signed
1709914662.9757 0.000 0.000 0.0000 0.000 0.0000
1709914662.9843 0.000 0.000 0.0000 0.000 0.0000
1709914662.9920 -0.000 -0.000 0.0016 -0.000 0.0016
1709914662.9987 -0.000 -0.000 0.0016 -0.000 0.0016
1709914663.0069 -0.000 -0.000 0.0016 -0.000 0.0016
1709914663.0151 0.000 0.000 0.0000 0.000 0.0000
1709914663.0229 0.000 0.000 0.0000 0.000 0.0000
1709914663.0319 0.000 0.000 0.0000 0.000 0.0000
1709914663.0399 0.000 0.000 0.0000 0.000 0.0000
1709914663.0477 0.000 0.000 0.0000 0.000 0.0000
1709914663.0549 0.000 0.000 0.0000 0.000 0.0000
1709914663.0718 0.000 0.000 0.0000 0.000 0.0000
1709914663.0799 0.000 0.000 0.0000 0.000 0.0000
1709914663.0875 0.000 0.000 0.0000 0.000 0.0000
1709914663.0964 0.000 0.000 0.0000 0.000 0.0000
1709914663.1029 0.000 0.000 0.0000 0.000 0.0000
1709914663.1115 0.000 0.000 0.0000 0.000 0.0000
1709914663.1194 0.000 -0.000 -0.0016 0.000 -0.0016
1709914663.1277 0.001 0.000 0.0031 0.001 0.0031
1709914663.1351 0.002 0.000 0.0047 0.002 0.0047
1709914663.1434 0.003 0.000 -0.0031 0.003 -0.0031
1709914663.1509 0.004 0.000 -0.0093 0.004 -0.0093
1709914663.1593 0.006 -0.000 -0.0124 0.006 -0.0124
1709914663.1673 0.008 -0.000 -0.0202 0.008 -0.0202
1709914663.1758 0.010 -0.000 -0.0295 0.010 -0.0295
1709914663.1837 0.011 -0.000 -0.0373 0.011 -0.0373
1709914663.1915 0.014 -0.000 -0.0466 0.014 -0.0466
1709914663.1998 0.016 -0.000 -0.0621 0.016 -0.0621
1709914663.2073 0.019 -0.001 -0.0761 0.019 -0.0761
1709914663.2160 0.021 -0.001 -0.0916 0.021 -0.0916
1709914663.2233 0.024 -0.001 -0.1102 0.024 -0.1102
1709914663.2324 0.027 -0.001 -0.1304 0.027 -0.1304
1709914663.2393 0.030 -0.002 -0.1490 0.030 -0.1490
1709914663.2476 0.034 -0.002 -0.1692 0.034 -0.1692
1709914663.2559 0.037 -0.003 -0.1894 0.037 -0.1894
1709914663.2636 0.040 -0.004 -0.2080 0.041 -0.2080
1709914663.2710 0.044 -0.004 -0.2297 0.044 -0.2297
1709914663.2795 0.047 -0.005 -0.2515 0.048 -0.2515
1709914663.2870 0.050 -0.006 -0.2701 0.051 -0.2701
1709914663.2953 0.054 -0.007 -0.2856 0.054 -0.2856
1709914663.3036 0.057 -0.008 -0.3042 0.058 -0.3042
1709914663.3113 0.060 -0.009 -0.3229 0.061 -0.3229
1709914663.3196 0.064 -0.010 -0.3368 0.065 -0.3368
1709914663.3269 0.067 -0.011 -0.3493 0.068 -0.3493
1709914663.3355 0.070 -0.013 -0.3632 0.072 -0.3632
1709914663.3438 0.073 -0.014 -0.3741 0.075 -0.3741
1709914663.3509 0.076 -0.015 -0.3834 0.078 -0.3834
1709914663.3590 0.079 -0.016 -0.3927 0.082 -0.3927
1709914663.3673 0.082 -0.018 -0.3989 0.085 -0.3989
1709914663.3755 0.085 -0.019 -0.4020 0.088 -0.4020
1709914663.3830 0.088 -0.020 -0.4036 0.091 -0.4036
1709914663.3919 0.091 -0.021 -0.4051 0.094 -0.4051
1709914663.3989 0.093 -0.022 -0.4005 0.097 -0.4005
1709914663.4069 0.096 -0.024 -0.3958 0.100 -0.3958
1709914663.4152 0.099 -0.025 -0.3896 0.103 -0.3896
1709914663.4236 0.102 -0.026 -0.3772 0.106 -0.3772
1709914663.4326 0.104 -0.027 -0.3617 0.109 -0.3617
1709914663.4399 0.107 -0.028 -0.3477 0.112 -0.3477
1709914663.4470 0.111 -0.029 -0.3306 0.116 -0.3306
1709914663.4550 0.114 -0.030 -0.3151 0.119 -0.3151
1709914663.4634 0.117 -0.031 -0.2965 0.122 -0.2965
1709914663.4717 0.120 -0.032 -0.2747 0.125 -0.2747
1709914663.4797 0.123 -0.033 -0.2530 0.129 -0.2530
1709914663.4876 0.127 -0.034 -0.2297 0.132 -0.2297
1709914663.4958 0.130 -0.035 -0.2096 0.136 -0.2096
1709914663.5037 0.134 -0.035 -0.1863 0.139 -0.1863
1709914663.5110 0.137 -0.036 -0.1614 0.143 -0.1614
1709914663.5194 0.140 -0.036 -0.1382 0.146 -0.1382
1709914663.5274 0.143 -0.037 -0.1180 0.149 -0.1180
1709914663.5352 0.147 -0.037 -0.0978 0.153 -0.0978
1709914663.5438 0.150 -0.037 -0.0730 0.156 -0.0730
1709914663.5517 0.154 -0.038 -0.0512 0.159 -0.0512
1709914663.5590 0.157 -0.038 -0.0295 0.163 -0.0295
1709914663.5674 0.161 -0.038 -0.0062 0.166 -0.0062
1709914663.5762 0.163 -0.038 0.0171 0.169 0.0171
1709914663.5832 0.167 -0.038 0.0450 0.173 0.0450
1709914663.5914 0.170 -0.037 0.0714 0.176 0.0714
1709914663.5995 0.174 -0.037 0.0885 0.179 0.0885
1709914663.6078 0.177 -0.037 0.1102 0.183 0.1102
1709914663.6151 0.180 -0.036 0.1382 0.186 0.1382
1709914663.6229 0.183 -0.036 0.1630 0.189 0.1630
1709914663.6322 0.186 -0.035 0.1847 0.192 0.1847
1709914663.6392 0.190 -0.035 0.2064 0.196 0.2064
1709914663.6471 0.193 -0.034 0.2328 0.199 0.2328
1709914663.6555 0.196 -0.033 0.2592 0.202 0.2592
1709914663.6638 0.199 -0.032 0.2810 0.205 0.2810
1709914663.6717 0.202 -0.031 0.3058 0.209 0.3058
1709914663.6790 0.205 -0.030 0.3306 0.212 0.3306
1709914663.6871 0.208 -0.030 0.3539 0.215 0.3539
1709914663.6951 0.211 -0.028 0.3756 0.218 0.3756
1709914663.7038 0.214 -0.027 0.3989 0.221 0.3989
1709914663.7109 0.217 -0.026 0.4253 0.225 0.4253
1709914663.7191 0.220 -0.024 0.4470 0.228 0.4470
1709914663.7275 0.223 -0.023 0.4672 0.231 0.4672
1709914663.7357 0.225 -0.022 0.4874 0.234 0.4874
1709914663.7436 0.228 -0.020 0.5122 0.237 0.5122
1709914663.7509 0.231 -0.019 0.5309 0.240 0.5309
1709914663.7593 0.233 -0.017 0.5417 0.243 0.5417
1709914663.7672 0.237 -0.015 0.5495 0.247 0.5495
1709914663.7757 0.239 -0.014 0.5619 0.250 0.5619
1709914663.7837 0.241 -0.012 0.5712 0.252 0.5712
1709914663.7917 0.244 -0.011 0.5728 0.255 0.5728
1709914663.7990 0.246 -0.009 0.5712 0.258 0.5712
1709914663.8073 0.248 -0.008 0.5697 0.261 0.5697
1709914663.8153 0.251 -0.006 0.5650 0.264 0.5650
1709914663.8237 0.253 -0.005 0.5573 0.266 0.5573
1709914663.8317 0.256 -0.003 0.5464 0.269 0.5464
1709914663.8397 0.258 -0.002 0.5340 0.272 0.5340
1709914663.8479 0.261 -0.000 0.5216 0.275 0.5216
1709914663.8552 0.264 0.002 0.5076 0.279 0.5076
1709914663.8632 0.266 0.003 0.4905 0.281 0.4905
1709914663.8718 0.269 0.004 0.4703 0.284 0.4703
1709914663.8794 0.272 0.006 0.4517 0.288 0.4517
1709914663.8873 0.275 0.007 0.4300 0.291 0.4300
1709914663.8954 0.277 0.008 0.4082 0.294 0.4082
1709914663.9037 0.281 0.010 0.3881 0.298 0.3881
1709914663.9117 0.284 0.011 0.3663 0.301 0.3663
1709914663.9191 0.287 0.012 0.3399 0.304 0.3399
1709914663.9276 0.290 0.013 0.3167 0.307 0.3167
1709914663.9362 0.293 0.014 0.2949 0.311 0.2949
1709914663.9435 0.297 0.015 0.2716 0.314 0.2716
1709914663.9518 0.300 0.016 0.2468 0.318 0.2468
1709914663.9598 0.303 0.017 0.2235 0.321 0.2235
1709914663.9671 0.306 0.017 0.1987 0.324 0.1987
1709914663.9756 0.310 0.018 0.1739 0.328 0.1739
1709914663.9829 0.313 0.019 0.1506 0.331 0.1506
1709914663.9914 0.317 0.019 0.1257 0.335 0.1257
1709914663.9999 0.320 0.020 0.1040 0.338 0.1040
1709914664.0079 0.323 0.020 0.0776 0.341 0.0776
1709914664.0152 0.327 0.020 0.0497 0.345 0.0497
1709914664.0237 0.330 0.020 0.0233 0.348 0.0233
1709914664.0324 0.333 0.020 0.0016 0.351 0.0016
1709914664.0396 0.336 0.020 -0.0217 0.354 -0.0217
1709914664.0469 0.340 0.020 -0.0481 0.358 -0.0481
1709914664.0550 0.343 0.020 -0.0714 0.361 -0.0714
1709914664.0634 0.346 0.020 -0.0931 0.364 -0.0931
1709914664.0718 0.349 0.019 -0.1164 0.367 -0.1164
1709914664.0798 0.352 0.019 -0.1444 0.371 -0.1444
1709914664.0877 0.356 0.018 -0.1692 0.374 -0.1692
1709914664.0959 0.359 0.018 -0.1925 0.377 -0.1925
1709914664.1038 0.362 0.017 -0.2142 0.380 -0.2142
1709914664.1109 0.365 0.016 -0.2390 0.384 -0.2390
1709914664.1193 0.369 0.015 -0.2623 0.387 -0.2623
1709914664.1272 0.371 0.015 -0.2841 0.390 -0.2841
1709914664.1351 0.374 0.014 -0.3089 0.393 -0.3089
1709914664.1434 0.378 0.013 -0.3353 0.397 -0.3353
1709914664.1529 0.381 0.012 -0.3586 0.400 -0.3586
1709914664.1599 0.384 0.010 -0.3803 0.403 -0.3803
1709914664.1679 0.387 0.009 -0.4051 0.406 -0.4051
1709914664.1758 0.390 0.008 -0.4269 0.410 -0.4269
1709914664.1837 0.393 0.007 -0.4517 0.413 -0.4517
1709914664.1910 0.395 0.005 -0.4765 0.416 -0.4765
1709914664.1993 0.398 0.004 -0.5029 0.419 -0.5029
1709914664.2076 0.401 0.002 -0.5247 0.422 -0.5247
1709914664.2158 0.403 0.001 -0.5479 0.425 -0.5479
1709914664.2238 0.406 -0.001 -0.5759 0.429 -0.5759
1709914664.2318 0.409 -0.003 -0.6007 0.432 -0.6007
1709914664.2391 0.412 -0.005 -0.6225 0.435 -0.6225
1709914664.2470 0.414 -0.007 -0.6457 0.438 -0.6457
1709914664.2553 0.416 -0.009 -0.6690 0.441 -0.6690
1709914664.2636 0.419 -0.011 -0.6939 0.445 -0.6939
1709914664.2714 0.421 -0.013 -0.7187 0.448 -0.7187
1709914664.2797 0.423 -0.014 -0.7342 0.450 -0.7342
1709914664.2876 0.425 -0.016 -0.7435 0.453 -0.7435
1709914664.2962 0.428 -0.018 -0.7497 0.456 -0.7497
1709914664.3034 0.430 -0.021 -0.7591 0.459 -0.7591
1709914664.3117 0.432 -0.022 -0.7730 0.462 -0.7730
1709914664.3193 0.434 -0.024 -0.7823 0.465 -0.7823
1709914664.3277 0.436 -0.026 -0.7854 0.467 -0.7854
1709914664.3356 0.437 -0.028 -0.7854 0.470 -0.7854
1709914664.3431 0.439 -0.030 -0.7870 0.472 -0.7870
1709914664.3514 0.442 -0.032 -0.7885 0.476 -0.7885
1709914664.3597 0.444 -0.034 -0.7901 0.478 -0.7901
1709914664.3675 0.446 -0.036 -0.7854 0.481 -0.7854
1709914664.3758 0.448 -0.038 -0.7823 0.484 -0.7823
1709914664.3837 0.450 -0.040 -0.7792 0.487 -0.7792
1709914664.3912 0.452 -0.043 -0.7761 0.491 -0.7761
1709914664.3996 0.455 -0.045 -0.7715 0.494 -0.7715
1709914664.4069 0.457 -0.047 -0.7653 0.497 -0.7653
1709914664.4159 0.459 -0.049 -0.7575 0.500 -0.7575
1709914664.4230 0.461 -0.051 -0.7513 0.503 -0.7513
1709914664.4320 0.464 -0.054 -0.7435 0.507 -0.7435
1709914664.4399 0.466 -0.056 -0.7373 0.510 -0.7373
1709914664.4470 0.468 -0.058 -0.7311 0.513 -0.7311
1709914664.4554 0.471 -0.060 -0.7249 0.516 -0.7249
1709914664.4633 0.474 -0.062 -0.7218 0.520 -0.7218
1709914664.4718 0.476 -0.064 -0.7202 0.522 -0.7202
1709914664.4800 0.478 -0.066 -0.7171 0.525 -0.7171
1709914664.4873 0.481 -0.069 -0.7125 0.529 -0.7125
1709914664.4956 0.483 -0.071 -0.7063 0.533 -0.7063
1709914664.5029 0.486 -0.073 -0.7032 0.536 -0.7032
1709914664.5109 0.488 -0.075 -0.7016 0.539 -0.7016
1709914664.5192 0.490 -0.077 -0.7016 0.542 -0.7016
1709914664.5275 0.493 -0.079 -0.7001 0.545 -0.7001
1709914664.5351 0.495 -0.081 -0.6954 0.548 -0.6954
1709914664.5434 0.498 -0.083 -0.6908 0.552 -0.6908
1709914664.5517 0.500 -0.085 -0.6923 0.554 -0.6923
1709914664.5597 0.502 -0.087 -0.6939 0.557 -0.6939
1709914664.5679 0.505 -0.089 -0.6908 0.561 -0.6908
1709914664.5750 0.508 -0.091 -0.6892 0.564 -0.6892
1709914664.5836 0.510 -0.093 -0.6876 0.567 -0.6876
1709914664.5918 0.512 -0.095 -0.6861 0.570 -0.6861
1709914664.5991 0.515 -0.097 -0.6892 0.573 -0.6892
1709914664.6072 0.517 -0.099 -0.6892 0.577 -0.6892
1709914664.6153 0.520 -0.101 -0.6845 0.580 -0.6845
1709914664.6238 0.522 -0.103 -0.6845 0.583 -0.6845
1709914664.6324 0.525 -0.105 -0.6876 0.586 -0.6876
1709914664.6393 0.528 -0.108 -0.6908 0.590 -0.6908
1709914664.6477 0.530 -0.110 -0.6908 0.594 -0.6908
1709914664.6566 0.532 -0.112 -0.6861 0.596 -0.6861
1709914664.6638 0.535 -0.113 -0.6876 0.599 -0.6876
1709914664.6709 0.537 -0.116 -0.6892 0.603 -0.6892
1709914664.6790 0.540 -0.118 -0.6908 0.606 -0.6908
1709914664.6878 0.542 -0.119 -0.6892 0.609 -0.6892
1709914664.6949 0.544 -0.122 -0.6876 0.612 -0.6876
1709914664.7038 0.547 -0.124 -0.6876 0.615 -0.6876
1709914664.7112 0.549 -0.126 -0.6876 0.618 -0.6876
1709914664.7197 0.552 -0.128 -0.6892 0.622 -0.6892
1709914664.7276 0.554 -0.130 -0.6876 0.625 -0.6876
1709914664.7355 0.557 -0.132 -0.6892 0.628 -0.6892
1709914664.7439 0.559 -0.134 -0.6923 0.631 -0.6923
1709914664.7517 0.562 -0.136 -0.6939 0.634 -0.6939
1709914664.7599 0.564 -0.138 -0.6908 0.638 -0.6908
1709914664.7671 0.566 -0.140 -0.6892 0.640 -0.6892
1709914664.7750 0.569 -0.142 -0.6923 0.643 -0.6923
1709914664.7839 0.571 -0.144 -0.6970 0.647 -0.6970
1709914664.7910 0.574 -0.146 -0.6954 0.650 -0.6954
1709914664.8000 0.576 -0.148 -0.6923 0.653 -0.6923
1709914664.8076 0.579 -0.150 -0.6908 0.657 -0.6908
1709914664.8158 0.581 -0.152 -0.6939 0.660 -0.6939
1709914664.8240 0.583 -0.154 -0.6970 0.663 -0.6970
1709914664.8322 0.586 -0.156 -0.6970 0.666 -0.6970
1709914664.8395 0.588 -0.158 -0.6970 0.669 -0.6970
1709914664.8478 0.591 -0.160 -0.6954 0.672 -0.6954
1709914664.8551 0.593 -0.162 -0.6985 0.675 -0.6985
1709914664.8637 0.595 -0.164 -0.6985 0.678 -0.6985
1709914664.8718 0.598 -0.166 -0.6939 0.681 -0.6939
1709914664.8790 0.601 -0.168 -0.6954 0.685 -0.6954
1709914664.8872 0.603 -0.170 -0.7001 0.688 -0.7001
1709914664.8954 0.605 -0.172 -0.7016 0.691 -0.7016
1709914664.9037 0.607 -0.174 -0.7001 0.694 -0.7001
1709914664.9111 0.610 -0.176 -0.6954 0.697 -0.6954
1709914664.9191 0.613 -0.178 -0.6939 0.701 -0.6939
1709914664.9274 0.615 -0.180 -0.6954 0.704 -0.6954
1709914664.9356 0.617 -0.182 -0.6939 0.707 -0.6939
1709914664.9436 0.620 -0.184 -0.6970 0.710 -0.6970
1709914664.9509 0.623 -0.187 -0.6985 0.714 -0.6985
1709914664.9594 0.625 -0.189 -0.6985 0.717 -0.6985
1709914664.9675 0.627 -0.190 -0.6985 0.720 -0.6985
1709914664.9758 0.630 -0.192 -0.6985 0.723 -0.6985
1709914664.9837 0.632 -0.195 -0.6970 0.726 -0.6970
1709914664.9917 0.635 -0.197 -0.6954 0.730 -0.6954
1709914664.9991 0.637 -0.199 -0.6954 0.733 -0.6954
1709914665.0077 0.640 -0.201 -0.6970 0.736 -0.6970
1709914665.0167 0.642 -0.203 -0.6954 0.739 -0.6954
1709914665.0230 0.645 -0.205 -0.6939 0.743 -0.6939
1709914665.0322 0.647 -0.207 -0.6939 0.746 -0.6939
1709914665.0391 0.649 -0.209 -0.6970 0.749 -0.6970
1709914665.0477 0.652 -0.211 -0.6985 0.751 -0.6985
1709914665.0550 0.654 -0.213 -0.6954 0.755 -0.6954
1709914665.0639 0.657 -0.215 -0.6954 0.759 -0.6954
1709914665.0712 0.660 -0.217 -0.6939 0.762 -0.6939
1709914665.0796 0.662 -0.219 -0.6954 0.765 -0.6954
1709914665.0872 0.664 -0.221 -0.6939 0.767 -0.6939
1709914665.0957 0.666 -0.223 -0.6939 0.771 -0.6939
1709914665.1030 0.669 -0.225 -0.6939 0.774 -0.6939
1709914665.1111 0.672 -0.227 -0.6954 0.777 -0.6954
1709914665.1194 0.674 -0.229 -0.6954 0.780 -0.6954
1709914665.1269 0.676 -0.231 -0.6923 0.783 -0.6923
1709914665.1354 0.679 -0.233 -0.6908 0.787 -0.6908
1709914665.1438 0.681 -0.235 -0.6939 0.790 -0.6939
1709914665.1509 0.684 -0.237 -0.6939 0.793 -0.6939
1709914665.1591 0.686 -0.239 -0.6908 0.796 -0.6908
1709914665.1675 0.688 -0.241 -0.6892 0.799 -0.6892
1709914665.1750 0.691 -0.243 -0.6908 0.802 -0.6908
1709914665.1837 0.693 -0.245 -0.6923 0.805 -0.6923
1709914665.1910 0.695 -0.247 -0.6892 0.808 -0.6892
1709914665.1993 0.698 -0.249 -0.6892 0.812 -0.6892
1709914665.2073 0.700 -0.251 -0.6908 0.815 -0.6908
1709914665.2157 0.703 -0.253 -0.6939 0.818 -0.6939
1709914665.2229 0.705 -0.255 -0.6923 0.821 -0.6923
1709914665.2317 0.708 -0.257 -0.6923 0.824 -0.6923
1709914665.2390 0.710 -0.259 -0.6954 0.827 -0.6954
1709914665.2474 0.712 -0.261 -0.6954 0.830 -0.6954
1709914665.2554 0.715 -0.263 -0.6923 0.834 -0.6923
1709914665.2638 0.717 -0.265 -0.6923 0.837 -0.6923
1709914665.2712 0.720 -0.268 -0.6954 0.840 -0.6954
1709914665.2793 0.722 -0.270 -0.6970 0.844 -0.6970
1709914665.2873 0.725 -0.272 -0.6939 0.847 -0.6939
1709914665.2958 0.727 -0.274 -0.6908 0.850 -0.6908
1709914665.3037 0.730 -0.276 -0.6939 0.853 -0.6939
1709914665.3110 0.733 -0.278 -0.6985 0.857 -0.6985
1709914665.3195 0.735 -0.280 -0.6985 0.860 -0.6985
1709914665.3277 0.737 -0.282 -0.6939 0.863 -0.6939
1709914665.3357 0.740 -0.284 -0.6923 0.866 -0.6923
1709914665.3430 0.742 -0.286 -0.6954 0.869 -0.6954
1709914665.3511 0.745 -0.288 -0.6985 0.872 -0.6985
1709914665.3596 0.747 -0.290 -0.6970 0.876 -0.6970
1709914665.3670 0.750 -0.292 -0.6939 0.879 -0.6939
1709914665.3761 0.752 -0.295 -0.6939 0.882 -0.6939
1709914665.3830 0.755 -0.296 -0.6954 0.885 -0.6954
1709914665.3914 0.757 -0.298 -0.6939 0.888 -0.6939
1709914665.3993 0.759 -0.300 -0.6923 0.892 -0.6923
1709914665.4078 0.762 -0.303 -0.6939 0.895 -0.6939
1709914665.4152 0.765 -0.305 -0.6970 0.898 -0.6970
1709914665.4230 0.767 -0.307 -0.6970 0.901 -0.6970
1709914665.4323 0.769 -0.308 -0.6923 0.904 -0.6923
1709914665.4395 0.772 -0.311 -0.6908 0.908 -0.6908
1709914665.4471 0.774 -0.313 -0.6939 0.911 -0.6939
1709914665.4555 0.777 -0.315 -0.6970 0.914 -0.6970
1709914665.4639 0.779 -0.317 -0.6954 0.917 -0.6954
1709914665.4719 0.781 -0.319 -0.6923 0.920 -0.6923
1709914665.4791 0.784 -0.321 -0.6923 0.924 -0.6923
1709914665.4873 0.787 -0.323 -0.6970 0.927 -0.6970
1709914665.4953 0.789 -0.325 -0.6954 0.930 -0.6954
1709914665.5038 0.791 -0.327 -0.6923 0.933 -0.6923
1709914665.5111 0.794 -0.329 -0.6923 0.936 -0.6923
1709914665.5192 0.796 -0.331 -0.6939 0.940 -0.6939
1709914665.5278 0.799 -0.333 -0.6954 0.943 -0.6954
1709914665.5358 0.801 -0.335 -0.6954 0.946 -0.6954
1709914665.5440 0.803 -0.337 -0.6939 0.949 -0.6939
1709914665.5511 0.806 -0.339 -0.6939 0.953 -0.6939
1709914665.5594 0.809 -0.341 -0.6939 0.956 -0.6939
1709914665.5674 0.811 -0.343 -0.6939 0.958 -0.6939
1709914665.5758 0.813 -0.345 -0.6923 0.962 -0.6923
1709914665.5837 0.816 -0.348 -0.6923 0.965 -0.6923
1709914665.5917 0.818 -0.350 -0.6939 0.968 -0.6939
1709914665.5990 0.821 -0.352 -0.6954 0.972 -0.6954
1709914665.6075 0.823 -0.353 -0.6939 0.974 -0.6939
1709914665.6155 0.825 -0.355 -0.6908 0.978 -0.6908
1709914665.6229 0.828 -0.357 -0.6923 0.981 -0.6923
1709914665.6321 0.830 -0.360 -0.6954 0.984 -0.6954
1709914665.6398 0.833 -0.362 -0.6970 0.987 -0.6970
1709914665.6469 0.835 -0.364 -0.6939 0.990 -0.6939
1709914665.6553 0.838 -0.366 -0.6923 0.994 -0.6923
1709914665.6634 0.840 -0.368 -0.6908 0.997 -0.6908
1709914665.6718 0.843 -0.370 -0.6939 1.000 -0.6939
1709914665.6791 0.845 -0.372 -0.6985 1.003 -0.6985
1709914665.6869 0.847 -0.374 -0.6939 1.006 -0.6939
1709914665.6953 0.850 -0.375 -0.6923 1.009 -0.6923
1709914665.7037 0.852 -0.377 -0.6923 1.012 -0.6923
1709914665.7118 0.855 -0.380 -0.6954 1.016 -0.6954
1709914665.7191 0.858 -0.382 -0.6970 1.019 -0.6970
1709914665.7275 0.860 -0.384 -0.6954 1.022 -0.6954
1709914665.7361 0.862 -0.386 -0.6939 1.025 -0.6939
1709914665.7435 0.864 -0.388 -0.6954 1.028 -0.6954
1709914665.7518 0.867 -0.390 -0.6970 1.032 -0.6970
1709914665.7598 0.870 -0.392 -0.6970 1.035 -0.6970
1709914665.7671 0.872 -0.394 -0.6970 1.038 -0.6970
1709914665.7756 0.874 -0.396 -0.6970 1.041 -0.6970
1709914665.7831 0.877 -0.398 -0.6970 1.045 -0.6970
1709914665.7915 0.880 -0.401 -0.6970 1.048 -0.6970
1709914665.7999 0.882 -0.403 -0.6954 1.051 -0.6954
1709914665.8069 0.884 -0.404 -0.6939 1.054 -0.6939
1709914665.8155 0.887 -0.406 -0.6923 1.057 -0.6923
1709914665.8239 0.889 -0.408 -0.6939 1.060 -0.6939
1709914665.8325 0.892 -0.411 -0.6954 1.064 -0.6954
1709914665.8399 0.894 -0.413 -0.6939 1.067 -0.6939
1709914665.8472 0.897 -0.415 -0.6892 1.070 -0.6892
1709914665.8551 0.899 -0.417 -0.6892 1.074 -0.6892
1709914665.8636 0.901 -0.418 -0.6892 1.076 -0.6892
1709914665.8719 0.904 -0.420 -0.6861 1.079 -0.6861
1709914665.8800 0.906 -0.423 -0.6830 1.083 -0.6830
1709914665.8880 0.909 -0.424 -0.6830 1.086 -0.6830
1709914665.8953 0.911 -0.426 -0.6830 1.088 -0.6830
1709914665.9033 0.913 -0.428 -0.6814 1.091 -0.6814
1709914665.9118 0.915 -0.430 -0.6799 1.094 -0.6799
1709914665.9190 0.917 -0.432 -0.6783 1.097 -0.6783
1709914665.9272 0.920 -0.434 -0.6799 1.100 -0.6799
1709914665.9354 0.922 -0.435 -0.6799 1.103 -0.6799
1709914665.9438 0.924 -0.437 -0.6814 1.106 -0.6814
1709914665.9518 0.927 -0.439 -0.6814 1.109 -0.6814
1709914665.9590 0.930 -0.442 -0.6768 1.113 -0.6768
1709914665.9674 0.932 -0.444 -0.6752 1.116 -0.6752
1709914665.9753 0.934 -0.445 -0.6783 1.119 -0.6783
1709914665.9834 0.937 -0.447 -0.6814 1.122 -0.6814
1709914665.9916 0.939 -0.449 -0.6830 1.125 -0.6830
1709914665.9991 0.942 -0.451 -0.6799 1.128 -0.6799
1709914666.0079 0.944 -0.453 -0.6783 1.131 -0.6783
1709914666.0151 0.946 -0.455 -0.6814 1.134 -0.6814
1709914666.0232 0.949 -0.457 -0.6830 1.137 -0.6830
1709914666.0324 0.951 -0.459 -0.6830 1.140 -0.6830
1709914666.0400 0.953 -0.461 -0.6830 1.143 -0.6830
1709914666.0471 0.956 -0.463 -0.6830 1.146 -0.6830
1709914666.0557 0.958 -0.465 -0.6861 1.150 -0.6861
1709914666.0631 0.961 -0.467 -0.6908 1.153 -0.6908
1709914666.0714 0.963 -0.469 -0.6908 1.156 -0.6908
1709914666.0800 0.966 -0.471 -0.6908 1.159 -0.6908
1709914666.0874 0.968 -0.473 -0.6923 1.163 -0.6923
1709914666.0967 0.971 -0.475 -0.6923 1.166 -0.6923
1709914666.1030 0.973 -0.477 -0.6954 1.169 -0.6954
1709914666.1115 0.976 -0.479 -0.6985 1.173 -0.6985
