% Pose without folding and reset (log_20240224_113422.588/log_pose_abs.txt)
% 1 	Time (sec)
% 2,3 	Position x,y (m)
% 4 	heading (rad)
% 5 	Driven distance (m) - signed
% 6 	Turned angle (rad) - signed
1708770862.7450 0.000 0.000 0.0000 0.000 0.0000
1708770862.7527 0.000 0.000 0.0000 0.000 0.0000
1708770862.7609 0.000 0.000 0.0000 0.000 0.0000
1708770862.7678 0.000 0.000 0.0000 0.000 0.0000
1708770862.7762 0.000 0.000 0.0000 0.000 0.0000
1708770862.7838 0.000 0.000 0.0000 0.000 0.0000
1708770862.7915 0.000 0.000 0.0000 0.000 0.0000
1708770862.8003 0.000 0.000 0.0000 0.000 0.0000
1708770862.8083 0.000 0.000 0.0000 0.000 0.0000
1708770862.8161 0.000 0.000 0.0000 0.000 0.0000
1708770862.8245 0.000 0.000 0.0000 0.000 0.0000
1708770862.8320 0.000 0.000 0.0000 0.000 0.0000
1708770862.8399 0.000 0.000 0.0000 0.000 0.0000
1708770862.8484 0.000 0.000 0.0000 0.000 0.0000
1708770862.8562 0.000 0.000 0.0000 0.000 0.0000
1708770862.8638 0.000 0.000 0.0000 0.000 0.0000
1708770862.8718 0.000 0.000 0.0000 0.000 0.0000
1708770862.8799 0.001 0.000 0.0047 0.001 0.0047
1708770862.8886 0.002 0.000 0.0047 0.002 0.0047
1708770862.8965 0.004 0.000 0.0000 0.004 0.0000
1708770862.9042 0.005 0.000 0.0000 0.005 0.0000
1708770862.9120 0.006 0.000 0.0000 0.006 0.0000
1708770862.9201 0.008 0.000 0.0000 0.008 0.0000
1708770862.9284 0.010 0.000 0.0000 0.010 0.0000
1708770862.9362 0.012 0.000 0.0000 0.012 0.0000
1708770862.9440 0.014 0.000 -0.0016 0.014 -0.0016
1708770862.9518 0.017 0.000 -0.0031 0.017 -0.0031
1708770862.9605 0.019 -0.000 -0.0047 0.019 -0.0047
1708770862.9686 0.022 -0.000 -0.0047 0.022 -0.0047
1708770862.9768 0.025 -0.000 -0.0062 0.025 -0.0062
1708770862.9852 0.029 -0.000 -0.0093 0.029 -0.0093
1708770862.9923 0.032 -0.000 -0.0078 0.032 -0.0078
1708770863.0001 0.036 -0.000 -0.0109 0.036 -0.0109
1708770863.0211 0.039 -0.000 -0.0140 0.039 -0.0140
1708770863.0228 0.042 -0.000 -0.0171 0.042 -0.0171
1708770863.0246 0.045 -0.000 -0.0186 0.045 -0.0186
1708770863.0318 0.047 -0.000 -0.0186 0.047 -0.0186
1708770863.0402 0.047 -0.000 -0.0202 0.047 -0.0202
1708770863.0482 0.048 -0.000 -0.0233 0.048 -0.0233
1708770863.0564 0.051 -0.000 -0.0233 0.051 -0.0233
1708770863.0645 0.056 -0.001 -0.0264 0.056 -0.0264
1708770863.0730 0.059 -0.001 -0.0264 0.059 -0.0264
1708770863.0802 0.061 -0.001 -0.0279 0.061 -0.0279
1708770863.0889 0.064 -0.001 -0.0310 0.064 -0.0310
1708770863.0962 0.067 -0.001 -0.0295 0.067 -0.0295
1708770863.1042 0.071 -0.001 -0.0310 0.071 -0.0310
1708770863.1126 0.074 -0.001 -0.0326 0.074 -0.0326
1708770863.1208 0.076 -0.001 -0.0341 0.076 -0.0341
1708770863.1285 0.079 -0.001 -0.0388 0.079 -0.0388
1708770863.1368 0.083 -0.001 -0.0404 0.083 -0.0404
1708770863.1441 0.086 -0.001 -0.0373 0.086 -0.0373
1708770863.1521 0.089 -0.002 -0.0373 0.089 -0.0373
1708770863.1602 0.091 -0.002 -0.0388 0.091 -0.0388
1708770863.1683 0.094 -0.002 -0.0419 0.094 -0.0419
1708770863.1760 0.098 -0.002 -0.0450 0.098 -0.0450
1708770863.1842 0.101 -0.002 -0.0466 0.101 -0.0466
1708770863.1924 0.103 -0.002 -0.0466 0.103 -0.0466
1708770863.2009 0.106 -0.002 -0.0450 0.106 -0.0450
1708770863.2080 0.110 -0.003 -0.0481 0.110 -0.0481
1708770863.2160 0.113 -0.003 -0.0528 0.113 -0.0528
1708770863.2238 0.115 -0.003 -0.0512 0.115 -0.0512
1708770863.2320 0.118 -0.003 -0.0481 0.118 -0.0481
1708770863.2402 0.121 -0.003 -0.0481 0.121 -0.0481
1708770863.2480 0.125 -0.003 -0.0512 0.125 -0.0512
1708770863.2566 0.128 -0.003 -0.0574 0.128 -0.0574
1708770863.2648 0.131 -0.004 -0.0574 0.131 -0.0574
1708770863.2727 0.134 -0.004 -0.0528 0.134 -0.0528
1708770863.2809 0.137 -0.004 -0.0528 0.137 -0.0528
1708770863.2879 0.140 -0.004 -0.0590 0.140 -0.0590
1708770863.2967 0.143 -0.004 -0.0605 0.144 -0.0605
1708770863.3043 0.146 -0.004 -0.0559 0.146 -0.0559
1708770863.3125 0.150 -0.005 -0.0528 0.150 -0.0528
1708770863.3202 0.153 -0.005 -0.0574 0.153 -0.0574
1708770863.3285 0.156 -0.005 -0.0636 0.156 -0.0636
1708770863.3367 0.159 -0.005 -0.0636 0.159 -0.0636
1708770863.3445 0.162 -0.005 -0.0559 0.163 -0.0559
1708770863.3520 0.166 -0.006 -0.0543 0.166 -0.0543
1708770863.3602 0.169 -0.006 -0.0605 0.169 -0.0605
1708770863.3680 0.172 -0.006 -0.0652 0.172 -0.0652
1708770863.3845 0.178 -0.006 -0.0559 0.178 -0.0559
1708770863.3919 0.181 -0.007 -0.0481 0.182 -0.0481
1708770863.4009 0.185 -0.007 -0.0497 0.185 -0.0497
1708770863.4081 0.188 -0.007 -0.0590 0.188 -0.0590
1708770863.4158 0.191 -0.007 -0.0605 0.191 -0.0605
1708770863.4240 0.195 -0.007 -0.0543 0.195 -0.0543
1708770863.4323 0.197 -0.007 -0.0497 0.198 -0.0497
1708770863.4399 0.200 -0.008 -0.0528 0.201 -0.0528
1708770863.4481 0.204 -0.008 -0.0590 0.204 -0.0590
1708770863.4560 0.207 -0.008 -0.0590 0.207 -0.0590
1708770863.4638 0.210 -0.008 -0.0543 0.211 -0.0543
1708770863.4721 0.213 -0.008 -0.0512 0.214 -0.0512
1708770863.4801 0.216 -0.008 -0.0543 0.217 -0.0543
1708770863.4879 0.220 -0.009 -0.0605 0.220 -0.0605
1708770863.4961 0.223 -0.009 -0.0574 0.223 -0.0574
1708770863.5039 0.226 -0.009 -0.0528 0.226 -0.0528
1708770863.5128 0.229 -0.009 -0.0528 0.229 -0.0528
1708770863.5200 0.232 -0.009 -0.0590 0.233 -0.0590
1708770863.5282 0.236 -0.010 -0.0621 0.237 -0.0621
1708770863.5359 0.239 -0.010 -0.0574 0.239 -0.0574
1708770863.5441 0.242 -0.010 -0.0528 0.242 -0.0528
1708770863.5519 0.245 -0.010 -0.0528 0.245 -0.0528
1708770863.5608 0.249 -0.010 -0.0574 0.249 -0.0574
1708770863.5680 0.252 -0.010 -0.0559 0.252 -0.0559
1708770863.5760 0.255 -0.011 -0.0543 0.256 -0.0543
1708770863.5838 0.258 -0.011 -0.0528 0.258 -0.0528
1708770863.5921 0.261 -0.011 -0.0512 0.261 -0.0512
1708770863.6010 0.265 -0.011 -0.0512 0.265 -0.0512
1708770863.6078 0.268 -0.011 -0.0528 0.269 -0.0528
1708770863.6159 0.271 -0.011 -0.0543 0.271 -0.0543
1708770863.6248 0.274 -0.012 -0.0497 0.274 -0.0497
1708770863.6326 0.277 -0.012 -0.0466 0.277 -0.0466
1708770863.6398 0.281 -0.012 -0.0466 0.281 -0.0466
1708770863.6488 0.284 -0.012 -0.0481 0.284 -0.0481
1708770863.6563 0.286 -0.012 -0.0466 0.286 -0.0466
1708770863.6647 0.289 -0.012 -0.0435 0.289 -0.0435
1708770863.6720 0.293 -0.013 -0.0404 0.293 -0.0404
1708770863.6808 0.297 -0.013 -0.0388 0.297 -0.0388
1708770863.6879 0.299 -0.013 -0.0373 0.299 -0.0373
1708770863.6962 0.302 -0.013 -0.0341 0.302 -0.0341
1708770863.7047 0.305 -0.013 -0.0295 0.306 -0.0295
1708770863.7127 0.309 -0.013 -0.0264 0.309 -0.0264
1708770863.7199 0.312 -0.013 -0.0279 0.313 -0.0279
1708770863.7288 0.315 -0.013 -0.0264 0.315 -0.0264
1708770863.7360 0.317 -0.013 -0.0202 0.318 -0.0202
1708770863.7446 0.321 -0.013 -0.0155 0.321 -0.0155
1708770863.7518 0.325 -0.013 -0.0171 0.325 -0.0171
1708770863.7601 0.328 -0.013 -0.0171 0.328 -0.0171
1708770863.7683 0.330 -0.013 -0.0109 0.331 -0.0109
1708770863.7760 0.333 -0.014 -0.0062 0.334 -0.0062
1708770863.7844 0.337 -0.014 -0.0016 0.338 -0.0016
1708770863.7926 0.341 -0.014 0.0016 0.341 0.0016
1708770863.8009 0.344 -0.014 0.0031 0.344 0.0031
1708770863.8081 0.347 -0.013 0.0062 0.347 0.0062
1708770863.8163 0.350 -0.013 0.0078 0.350 0.0078
1708770863.8241 0.353 -0.013 0.0109 0.354 0.0109
1708770863.8323 0.356 -0.013 0.0186 0.356 0.0186
1708770863.8409 0.359 -0.013 0.0202 0.359 0.0202
1708770863.8488 0.362 -0.013 0.0202 0.363 0.0202
1708770863.8567 0.366 -0.013 0.0202 0.366 0.0202
1708770863.8639 0.370 -0.013 0.0233 0.370 0.0233
1708770863.8728 0.372 -0.013 0.0279 0.372 0.0279
1708770863.8800 0.374 -0.013 0.0295 0.375 0.0295
1708770863.8880 0.378 -0.013 0.0341 0.378 0.0341
1708770863.8969 0.382 -0.013 0.0357 0.382 0.0357
1708770863.9047 0.385 -0.013 0.0357 0.386 0.0357
1708770863.9129 0.388 -0.013 0.0388 0.388 0.0388
1708770863.9205 0.391 -0.012 0.0404 0.391 0.0404
1708770863.9288 0.394 -0.012 0.0450 0.395 0.0450
1708770863.9358 0.398 -0.012 0.0450 0.399 0.0450
1708770863.9447 0.401 -0.012 0.0435 0.402 0.0435
1708770863.9525 0.404 -0.012 0.0450 0.404 0.0450
1708770863.9607 0.407 -0.012 0.0466 0.407 0.0466
1708770863.9685 0.411 -0.012 0.0481 0.411 0.0481
1708770863.9766 0.414 -0.011 0.0481 0.415 0.0481
1708770863.9848 0.417 -0.011 0.0512 0.417 0.0512
1708770863.9928 0.420 -0.011 0.0512 0.420 0.0512
1708770864.0006 0.423 -0.011 0.0497 0.423 0.0497
1708770864.0088 0.427 -0.011 0.0481 0.427 0.0481
1708770864.0167 0.430 -0.011 0.0512 0.431 0.0512
1708770864.0247 0.433 -0.010 0.0528 0.433 0.0528
1708770864.0320 0.436 -0.010 0.0512 0.436 0.0512
1708770864.0408 0.439 -0.010 0.0481 0.440 0.0481
1708770864.0479 0.443 -0.010 0.0466 0.443 0.0466
1708770864.0559 0.446 -0.010 0.0497 0.447 0.0497
1708770864.0648 0.449 -0.010 0.0543 0.449 0.0543
1708770864.0728 0.451 -0.009 0.0497 0.452 0.0497
1708770864.0800 0.455 -0.009 0.0466 0.456 0.0466
1708770864.0889 0.459 -0.009 0.0466 0.459 0.0466
1708770864.0961 0.461 -0.009 0.0497 0.462 0.0497
1708770864.1039 0.464 -0.009 0.0466 0.464 0.0466
1708770864.1128 0.467 -0.009 0.0419 0.468 0.0419
1708770864.1200 0.471 -0.009 0.0404 0.471 0.0404
1708770864.1283 0.474 -0.008 0.0435 0.475 0.0435
1708770864.1362 0.477 -0.008 0.0435 0.477 0.0435
1708770864.1444 0.480 -0.008 0.0419 0.480 0.0419
1708770864.1530 0.483 -0.008 0.0373 0.484 0.0373
1708770864.1607 0.487 -0.008 0.0341 0.487 0.0341
1708770864.1681 0.490 -0.008 0.0357 0.491 0.0357
1708770864.1760 0.493 -0.008 0.0373 0.493 0.0373
1708770864.1848 0.495 -0.008 0.0357 0.495 0.0357
1708770864.1925 0.498 -0.008 0.0295 0.499 0.0295
1708770864.2010 0.503 -0.007 0.0264 0.503 0.0264
1708770864.2079 0.506 -0.007 0.0295 0.507 0.0295
1708770864.2169 0.509 -0.007 0.0279 0.510 0.0279
1708770864.2242 0.511 -0.007 0.0264 0.512 0.0264
1708770864.2321 0.514 -0.007 0.0248 0.515 0.0248
1708770864.2408 0.519 -0.007 0.0248 0.519 0.0248
1708770864.2483 0.522 -0.007 0.0248 0.523 0.0248
1708770864.2561 0.525 -0.007 0.0233 0.526 0.0233
1708770864.2646 0.528 -0.007 0.0248 0.528 0.0248
1708770864.2720 0.531 -0.007 0.0233 0.531 0.0233
1708770864.2799 0.535 -0.007 0.0233 0.535 0.0233
1708770864.2883 0.538 -0.007 0.0233 0.538 0.0233
1708770864.2965 0.540 -0.006 0.0217 0.541 0.0217
1708770864.3040 0.543 -0.006 0.0217 0.544 0.0217
1708770864.3124 0.547 -0.006 0.0217 0.548 0.0217
1708770864.3207 0.551 -0.006 0.0186 0.551 0.0186
1708770864.3287 0.553 -0.006 0.0171 0.554 0.0171
1708770864.3358 0.556 -0.006 0.0202 0.557 0.0202
1708770864.3443 0.560 -0.006 0.0202 0.560 0.0202
1708770864.3519 0.563 -0.006 0.0186 0.564 0.0186
1708770864.3602 0.566 -0.006 0.0155 0.567 0.0155
1708770864.3686 0.569 -0.006 0.0186 0.570 0.0186
1708770864.3766 0.572 -0.006 0.0202 0.573 0.0202
1708770864.3848 0.576 -0.006 0.0186 0.576 0.0186
1708770864.3920 0.580 -0.006 0.0155 0.580 0.0155
1708770864.4000 0.583 -0.006 0.0171 0.583 0.0171
1708770864.4080 0.585 -0.006 0.0186 0.586 0.0186
1708770864.4164 0.588 -0.006 0.0202 0.589 0.0202
1708770864.4243 0.592 -0.006 0.0186 0.592 0.0186
1708770864.4328 0.595 -0.005 0.0186 0.596 0.0186
1708770864.4403 0.599 -0.005 0.0186 0.599 0.0186
1708770864.4484 0.602 -0.005 0.0202 0.602 0.0202
1708770864.4566 0.604 -0.005 0.0202 0.605 0.0202
1708770864.4640 0.608 -0.005 0.0202 0.608 0.0202
1708770864.4719 0.612 -0.005 0.0202 0.612 0.0202
1708770864.4802 0.614 -0.005 0.0217 0.615 0.0217
1708770864.4888 0.617 -0.005 0.0217 0.617 0.0217
1708770864.4967 0.620 -0.005 0.0202 0.621 0.0202
1708770864.5048 0.624 -0.005 0.0217 0.625 0.0217
1708770864.5122 0.628 -0.005 0.0217 0.628 0.0217
1708770864.5202 0.630 -0.005 0.0202 0.630 0.0202
1708770864.5281 0.632 -0.005 0.0217 0.633 0.0217
1708770864.5365 0.636 -0.005 0.0233 0.636 0.0233
1708770864.5444 0.640 -0.005 0.0233 0.640 0.0233
1708770864.5525 0.643 -0.004 0.0217 0.644 0.0217
1708770864.5607 0.646 -0.004 0.0202 0.646 0.0202
1708770864.5687 0.649 -0.004 0.0248 0.649 0.0248
1708770864.5762 0.652 -0.004 0.0295 0.653 0.0295
1708770864.5846 0.656 -0.004 0.0295 0.657 0.0295
1708770864.5927 0.659 -0.004 0.0264 0.660 0.0264
1708770864.6000 0.662 -0.004 0.0264 0.662 0.0264
1708770864.6078 0.665 -0.004 0.0310 0.665 0.0310
1708770864.6158 0.668 -0.004 0.0326 0.669 0.0326
1708770864.6242 0.672 -0.004 0.0310 0.672 0.0310
1708770864.6319 0.675 -0.004 0.0310 0.675 0.0310
1708770864.6400 0.678 -0.003 0.0326 0.678 0.0326
1708770864.6480 0.681 -0.003 0.0326 0.682 0.0326
1708770864.6568 0.685 -0.003 0.0326 0.685 0.0326
1708770864.6648 0.688 -0.003 0.0326 0.688 0.0326
1708770864.6721 0.691 -0.003 0.0341 0.691 0.0341
1708770864.6804 0.694 -0.003 0.0341 0.695 0.0341
1708770864.6884 0.697 -0.003 0.0326 0.698 0.0326
1708770864.6967 0.700 -0.003 0.0310 0.701 0.0310
1708770864.7047 0.704 -0.003 0.0326 0.704 0.0326
1708770864.7127 0.707 -0.002 0.0341 0.708 0.0341
1708770864.7200 0.710 -0.002 0.0326 0.711 0.0326
1708770864.7283 0.713 -0.002 0.0373 0.714 0.0373
1708770864.7363 0.716 -0.002 0.0357 0.717 0.0357
1708770864.7446 0.720 -0.002 0.0310 0.720 0.0310
1708770864.7525 0.723 -0.002 0.0310 0.724 0.0310
1708770864.7605 0.726 -0.002 0.0357 0.727 0.0357
1708770864.7682 0.729 -0.002 0.0357 0.730 0.0357
1708770864.7760 0.733 -0.002 0.0326 0.733 0.0326
1708770864.7842 0.736 -0.002 0.0295 0.736 0.0295
1708770864.7923 0.739 -0.001 0.0295 0.739 0.0295
1708770864.8007 0.742 -0.001 0.0326 0.743 0.0326
1708770864.8084 0.745 -0.001 0.0326 0.746 0.0326
1708770864.8168 0.749 -0.001 0.0279 0.749 0.0279
1708770864.8241 0.752 -0.001 0.0248 0.753 0.0248
1708770864.8320 0.755 -0.001 0.0295 0.756 0.0295
1708770864.8403 0.758 -0.001 0.0326 0.758 0.0326
1708770864.8487 0.761 -0.001 0.0295 0.761 0.0295
1708770864.8562 0.764 -0.001 0.0264 0.765 0.0264
1708770864.8646 0.768 -0.001 0.0279 0.768 0.0279
1708770864.8719 0.771 -0.000 0.0295 0.772 0.0295
1708770864.8807 0.774 -0.000 0.0279 0.774 0.0279
1708770864.8880 0.777 -0.000 0.0233 0.777 0.0233
1708770864.8963 0.780 -0.000 0.0217 0.781 0.0217
1708770864.9041 0.783 -0.000 0.0264 0.784 0.0264
1708770864.9123 0.786 -0.000 0.0295 0.787 0.0295
1708770864.9205 0.789 -0.000 0.0248 0.790 0.0248
1708770864.9284 0.792 0.000 0.0202 0.793 0.0202
1708770864.9361 0.796 0.000 0.0217 0.797 0.0217
1708770864.9441 0.799 0.000 0.0264 0.800 0.0264
1708770864.9527 0.802 0.000 0.0248 0.803 0.0248
1708770864.9604 0.805 0.000 0.0202 0.806 0.0202
1708770864.9688 0.809 0.000 0.0186 0.809 0.0186
1708770864.9768 0.812 0.000 0.0217 0.812 0.0217
1708770864.9844 0.815 0.001 0.0233 0.816 0.0233
1708770864.9923 0.818 0.001 0.0217 0.819 0.0217
1708770865.0007 0.821 0.001 0.0155 0.822 0.0155
1708770865.0086 0.825 0.001 0.0140 0.825 0.0140
1708770865.0158 0.828 0.001 0.0202 0.829 0.0202
1708770865.0238 0.831 0.001 0.0233 0.832 0.0233
1708770865.0323 0.834 0.001 0.0186 0.835 0.0186
1708770865.0408 0.837 0.001 0.0140 0.838 0.0140
1708770865.0478 0.841 0.001 0.0140 0.841 0.0140
1708770865.0558 0.844 0.001 0.0171 0.845 0.0171
1708770865.0642 0.847 0.001 0.0217 0.848 0.0217
1708770865.0722 0.850 0.001 0.0186 0.851 0.0186
1708770865.0806 0.853 0.001 0.0124 0.854 0.0124
1708770865.0881 0.857 0.001 0.0124 0.857 0.0124
1708770865.0961 0.860 0.001 0.0155 0.861 0.0155
1708770865.1042 0.863 0.001 0.0202 0.864 0.0202
1708770865.1127 0.866 0.001 0.0155 0.867 0.0155
1708770865.1207 0.869 0.001 0.0078 0.870 0.0078
1708770865.1281 0.873 0.002 0.0078 0.873 0.0078
1708770865.1367 0.876 0.002 0.0140 0.877 0.0140
1708770865.1439 0.879 0.002 0.0186 0.880 0.0186
1708770865.1528 0.882 0.002 0.0155 0.883 0.0155
1708770865.1601 0.885 0.002 0.0093 0.886 0.0093
1708770865.1681 0.889 0.002 0.0078 0.889 0.0078
1708770865.1764 0.892 0.002 0.0124 0.892 0.0124
1708770865.1849 0.895 0.002 0.0140 0.895 0.0140
1708770865.1927 0.898 0.002 0.0124 0.898 0.0124
1708770865.2000 0.901 0.002 0.0078 0.902 0.0078
1708770865.2081 0.905 0.002 0.0093 0.905 0.0093
1708770865.2160 0.907 0.002 0.0124 0.908 0.0124
1708770865.2243 0.910 0.002 0.0124 0.911 0.0124
1708770865.2328 0.914 0.002 0.0109 0.915 0.0109
1708770865.2406 0.918 0.002 0.0093 0.918 0.0093
1708770865.2483 0.921 0.002 0.0093 0.921 0.0093
1708770865.2563 0.923 0.002 0.0124 0.924 0.0124
1708770865.2641 0.927 0.002 0.0155 0.927 0.0155
1708770865.2725 0.930 0.002 0.0155 0.931 0.0155
1708770865.2811 0.933 0.002 0.0109 0.934 0.0109
1708770865.2882 0.936 0.002 0.0093 0.937 0.0093
1708770865.2965 0.939 0.002 0.0124 0.940 0.0124
1708770865.3045 0.942 0.002 0.0155 0.943 0.0155
1708770865.3128 0.946 0.002 0.0124 0.946 0.0124
1708770865.3200 0.949 0.002 0.0093 0.950 0.0093
1708770865.3282 0.953 0.002 0.0093 0.953 0.0093
1708770865.3361 0.955 0.002 0.0124 0.956 0.0124
1708770865.3448 0.958 0.003 0.0124 0.959 0.0124
1708770865.3518 0.962 0.003 0.0109 0.962 0.0109
1708770865.3609 0.966 0.003 0.0109 0.966 0.0109
1708770865.3682 0.969 0.003 0.0109 0.969 0.0109
1708770865.3765 0.971 0.003 0.0093 0.972 0.0093
1708770865.3844 0.974 0.003 0.0093 0.975 0.0093
1708770865.3928 0.978 0.003 0.0109 0.979 0.0109
1708770865.4001 0.982 0.003 0.0093 0.982 0.0093
1708770865.4088 0.985 0.003 0.0078 0.985 0.0078
1708770865.4165 0.987 0.003 0.0093 0.988 0.0093
1708770865.4239 0.990 0.003 0.0124 0.991 0.0124
1708770865.4324 0.994 0.003 0.0109 0.994 0.0109
1708770865.4400 0.997 0.003 0.0062 0.998 0.0062
1708770865.4485 1.000 0.003 0.0062 1.001 0.0062
1708770865.4561 1.003 0.003 0.0093 1.004 0.0093
1708770865.4643 1.007 0.003 0.0109 1.007 0.0109
1708770865.4728 1.010 0.003 0.0078 1.011 0.0078
1708770865.4798 1.013 0.003 0.0062 1.014 0.0062
1708770865.4882 1.016 0.003 0.0078 1.016 0.0078
1708770865.4966 1.019 0.003 0.0093 1.020 0.0093
1708770865.5042 1.023 0.003 0.0109 1.023 0.0109
1708770865.5124 1.026 0.003 0.0078 1.027 0.0078
1708770865.5208 1.029 0.003 0.0062 1.029 0.0062
1708770865.5288 1.032 0.003 0.0078 1.032 0.0078
1708770865.5361 1.035 0.003 0.0078 1.036 0.0078
1708770865.5446 1.039 0.003 0.0078 1.039 0.0078
1708770865.5522 1.042 0.003 0.0093 1.042 0.0093
1708770865.5606 1.044 0.003 0.0078 1.045 0.0078
1708770865.5680 1.048 0.003 0.0047 1.048 0.0047
1708770865.5763 1.051 0.003 0.0031 1.052 0.0031
1708770865.5846 1.055 0.003 0.0047 1.055 0.0047
1708770865.5921 1.057 0.003 0.0047 1.058 0.0047
1708770865.6002 1.060 0.003 0.0031 1.061 0.0031
1708770865.6083 1.064 0.003 0.0016 1.065 0.0016
1708770865.6167 1.068 0.003 0.0031 1.068 0.0031
1708770865.6247 1.071 0.003 0.0031 1.071 0.0031
1708770865.6319 1.073 0.003 0.0016 1.074 0.0016
1708770865.6402 1.077 0.003 0.0016 1.077 0.0016
1708770865.6479 1.080 0.003 0.0016 1.081 0.0016
1708770865.6569 1.083 0.003 0.0016 1.084 0.0016
1708770865.6642 1.086 0.003 -0.0016 1.087 -0.0016
1708770865.6721 1.090 0.003 -0.0016 1.090 -0.0016
1708770865.6805 1.093 0.003 0.0031 1.093 0.0031
1708770865.6888 1.096 0.003 0.0031 1.097 0.0031
1708770865.6958 1.099 0.003 -0.0016 1.100 -0.0016
1708770865.7048 1.102 0.003 -0.0031 1.103 -0.0031
1708770865.7124 1.105 0.003 -0.0000 1.106 0.0000
1708770865.7204 1.109 0.003 0.0031 1.109 0.0031
1708770865.7289 1.112 0.003 -0.0016 1.113 -0.0016
1708770865.7361 1.115 0.003 -0.0062 1.116 -0.0062
1708770865.7440 1.118 0.003 -0.0047 1.119 -0.0047
1708770865.7520 1.121 0.003 0.0016 1.122 0.0016
1708770865.7604 1.124 0.003 0.0016 1.125 0.0016
1708770865.7686 1.128 0.003 -0.0031 1.128 -0.0031
1708770865.7761 1.131 0.003 -0.0062 1.132 -0.0062
1708770865.7845 1.134 0.003 -0.0031 1.135 -0.0031
1708770865.7924 1.137 0.003 -0.0000 1.138 0.0000
1708770865.8007 1.140 0.003 -0.0016 1.141 -0.0016
1708770865.8082 1.144 0.003 -0.0062 1.144 -0.0062
1708770865.8162 1.147 0.003 -0.0047 1.148 -0.0047
1708770865.8246 1.150 0.003 -0.0031 1.151 -0.0031
1708770865.8319 1.153 0.003 -0.0047 1.153 -0.0047
1708770865.8399 1.156 0.003 -0.0047 1.157 -0.0047
1708770865.8482 1.160 0.003 -0.0047 1.160 -0.0047
1708770865.8562 1.163 0.003 -0.0047 1.163 -0.0047
1708770865.8641 1.166 0.003 -0.0031 1.166 -0.0031
1708770865.8726 1.169 0.003 -0.0031 1.169 -0.0031
1708770865.8799 1.173 0.003 -0.0031 1.173 -0.0031
1708770865.8878 1.176 0.003 -0.0047 1.177 -0.0047
1708770865.8962 1.179 0.003 -0.0062 1.179 -0.0062
1708770865.9043 1.181 0.003 -0.0031 1.182 -0.0031
1708770865.9121 1.185 0.003 -0.0000 1.185 0.0000
1708770865.9205 1.189 0.003 -0.0016 1.189 -0.0016
1708770865.9278 1.192 0.003 -0.0031 1.193 -0.0031
1708770865.9361 1.195 0.003 -0.0031 1.195 -0.0031
1708770865.9444 1.197 0.003 -0.0000 1.198 0.0000
1708770865.9526 1.200 0.003 -0.0000 1.201 0.0000
