% Pose without folding and reset (log_20240224_141816.900/log_pose_abs.txt)
% 1 	Time (sec)
% 2,3 	Position x,y (m)
% 4 	heading (rad)
% 5 	Driven distance (m) - signed
% 6 	Turned angle (rad) - signed
1708780697.6713 0.000 0.000 0.0000 0.000 0.0000
1708780697.6794 0.000 0.000 0.0000 0.000 0.0000
1708780697.6873 -0.000 -0.000 0.0016 -0.000 0.0016
1708780697.6941 -0.000 -0.000 0.0016 -0.000 0.0016
1708780697.7022 -0.000 -0.000 0.0016 -0.000 0.0016
1708780697.7104 0.003 0.000 0.0000 0.003 0.0000
1708780697.7183 0.006 -0.000 -0.0016 0.006 -0.0016
1708780697.7264 0.008 -0.000 0.0000 0.008 0.0000
1708780697.7339 0.009 -0.000 0.0016 0.009 0.0016
1708780697.7426 0.013 0.000 0.0047 0.013 0.0047
1708780697.7507 0.016 0.000 0.0047 0.016 0.0047
1708780697.7578 0.020 0.000 0.0047 0.020 0.0047
1708780697.7666 0.024 0.000 0.0016 0.024 0.0016
1708780697.7747 0.029 0.000 -0.0000 0.029 -0.0000
1708780697.7823 0.034 0.000 -0.0031 0.034 -0.0031
1708780697.7899 0.039 0.000 -0.0047 0.039 -0.0047
1708780697.7982 0.044 0.000 -0.0031 0.044 -0.0031
1708780697.8064 0.049 -0.000 -0.0047 0.049 -0.0047
1708780697.8141 0.054 -0.000 -0.0047 0.054 -0.0047
1708780697.8221 0.060 -0.000 -0.0047 0.060 -0.0047
1708780697.8299 0.065 -0.000 -0.0062 0.065 -0.0062
1708780697.8382 0.071 -0.000 -0.0062 0.071 -0.0062
1708780697.8497 0.077 -0.000 -0.0047 0.077 -0.0047
1708780697.8549 0.083 -0.000 -0.0062 0.083 -0.0062
1708780697.8629 0.088 -0.000 -0.0093 0.088 -0.0093
1708780697.8711 0.093 -0.000 -0.0078 0.093 -0.0078
1708780697.8790 0.098 -0.000 -0.0047 0.098 -0.0047
1708780697.8869 0.104 -0.000 -0.0031 0.104 -0.0031
1708780697.8947 0.110 -0.000 -0.0047 0.110 -0.0047
1708780697.9029 0.115 -0.000 -0.0031 0.115 -0.0031
1708780697.9112 0.121 -0.000 -0.0016 0.121 -0.0016
1708780697.9190 0.127 -0.000 -0.0000 0.127 -0.0000
1708780697.9273 0.134 -0.000 0.0016 0.134 0.0016
1708780697.9353 0.140 -0.000 0.0031 0.140 0.0031
1708780697.9427 0.146 -0.000 0.0047 0.146 0.0047
1708780697.9511 0.152 -0.000 0.0047 0.152 0.0047
1708780697.9587 0.158 -0.000 0.0093 0.158 0.0093
1708780697.9672 0.164 -0.000 0.0093 0.164 0.0093
1708780697.9745 0.170 -0.000 0.0062 0.170 0.0062
1708780697.9829 0.175 -0.000 0.0031 0.175 0.0031
1708780697.9912 0.181 -0.000 -0.0000 0.181 -0.0000
1708780697.9984 0.187 -0.000 -0.0031 0.187 -0.0031
1708780698.0062 0.193 -0.000 -0.0047 0.193 -0.0047
1708780698.0145 0.199 -0.000 -0.0078 0.199 -0.0078
1708780698.0228 0.205 -0.000 -0.0047 0.205 -0.0047
1708780698.0361 0.210 -0.000 -0.0093 0.210 -0.0093
1708780698.0392 0.216 -0.000 -0.0171 0.216 -0.0171
1708780698.0467 0.223 -0.000 -0.0233 0.223 -0.0233
1708780698.0548 0.227 -0.001 -0.0264 0.227 -0.0264
1708780698.0625 0.231 -0.001 -0.0279 0.231 -0.0279
1708780698.0708 0.235 -0.001 -0.0295 0.235 -0.0295
1708780698.0782 0.241 -0.001 -0.0310 0.241 -0.0310
1708780698.0864 0.246 -0.001 -0.0326 0.246 -0.0326
1708780698.0945 0.252 -0.001 -0.0341 0.252 -0.0341
1708780698.1022 0.256 -0.002 -0.0357 0.256 -0.0357
1708780698.1104 0.261 -0.002 -0.0404 0.261 -0.0404
1708780698.1187 0.267 -0.002 -0.0435 0.267 -0.0435
1708780698.1272 0.273 -0.002 -0.0435 0.273 -0.0435
1708780698.1343 0.278 -0.002 -0.0404 0.278 -0.0404
1708780698.1423 0.283 -0.003 -0.0450 0.283 -0.0450
1708780698.1505 0.289 -0.003 -0.0512 0.289 -0.0512
1708780698.1588 0.294 -0.003 -0.0528 0.294 -0.0528
1708780698.1672 0.299 -0.003 -0.0528 0.299 -0.0528
1708780698.1744 0.305 -0.004 -0.0528 0.305 -0.0528
1708780698.1829 0.310 -0.004 -0.0559 0.310 -0.0559
1708780698.1905 0.315 -0.004 -0.0605 0.316 -0.0605
1708780698.1984 0.321 -0.005 -0.0621 0.321 -0.0621
1708780698.2071 0.326 -0.005 -0.0605 0.326 -0.0605
1708780698.2144 0.332 -0.005 -0.0652 0.332 -0.0652
1708780698.2227 0.337 -0.006 -0.0714 0.338 -0.0714
1708780698.2304 0.342 -0.006 -0.0714 0.342 -0.0714
1708780698.2391 0.347 -0.006 -0.0714 0.347 -0.0714
1708780698.2463 0.353 -0.007 -0.0730 0.353 -0.0730
1708780698.2542 0.359 -0.007 -0.0761 0.359 -0.0761
1708780698.2630 0.364 -0.008 -0.0792 0.365 -0.0792
1708780698.2714 0.369 -0.008 -0.0776 0.370 -0.0776
1708780698.2789 0.375 -0.009 -0.0776 0.375 -0.0776
1708780698.2872 0.381 -0.009 -0.0792 0.382 -0.0792
1708780698.2945 0.386 -0.009 -0.0823 0.386 -0.0823
1708780698.3027 0.391 -0.010 -0.0823 0.391 -0.0823
1708780698.3111 0.397 -0.010 -0.0838 0.397 -0.0838
1708780698.3188 0.403 -0.011 -0.0807 0.403 -0.0807
1708780698.3282 0.409 -0.011 -0.0823 0.409 -0.0823
1708780698.3344 0.414 -0.012 -0.0854 0.414 -0.0854
1708780698.3433 0.419 -0.012 -0.0854 0.419 -0.0854
1708780698.3504 0.424 -0.013 -0.0838 0.424 -0.0838
1708780698.3593 0.430 -0.013 -0.0823 0.431 -0.0823
1708780698.3670 0.436 -0.014 -0.0823 0.436 -0.0823
1708780698.3751 0.441 -0.014 -0.0854 0.442 -0.0854
1708780698.3831 0.446 -0.014 -0.0838 0.447 -0.0838
1708780698.3913 0.452 -0.015 -0.0823 0.453 -0.0823
1708780698.3985 0.458 -0.015 -0.0823 0.459 -0.0823
1708780698.4067 0.464 -0.016 -0.0838 0.464 -0.0838
1708780698.4146 0.469 -0.016 -0.0838 0.469 -0.0838
1708780698.4228 0.474 -0.017 -0.0807 0.475 -0.0807
1708780698.4307 0.480 -0.017 -0.0776 0.481 -0.0776
1708780698.4384 0.486 -0.018 -0.0776 0.487 -0.0776
1708780698.4466 0.491 -0.018 -0.0792 0.492 -0.0792
1708780698.4546 0.496 -0.018 -0.0776 0.497 -0.0776
1708780698.4629 0.502 -0.019 -0.0730 0.503 -0.0730
1708780698.4711 0.508 -0.019 -0.0699 0.509 -0.0699
1708780698.4790 0.514 -0.020 -0.0699 0.515 -0.0699
1708780698.4871 0.519 -0.020 -0.0683 0.520 -0.0683
1708780698.4953 0.525 -0.021 -0.0636 0.525 -0.0636
1708780698.5027 0.530 -0.021 -0.0605 0.531 -0.0605
1708780698.5110 0.537 -0.021 -0.0590 0.538 -0.0590
1708780698.5183 0.542 -0.022 -0.0574 0.543 -0.0574
1708780698.5273 0.547 -0.022 -0.0559 0.548 -0.0559
1708780698.5344 0.553 -0.022 -0.0559 0.553 -0.0559
1708780698.5424 0.559 -0.022 -0.0528 0.559 -0.0528
1708780698.5506 0.564 -0.023 -0.0497 0.565 -0.0497
1708780698.5586 0.569 -0.023 -0.0481 0.570 -0.0481
1708780698.5668 0.575 -0.023 -0.0450 0.576 -0.0450
1708780698.5751 0.581 -0.024 -0.0435 0.582 -0.0435
1708780698.5828 0.587 -0.024 -0.0419 0.587 -0.0419
1708780698.5909 0.592 -0.024 -0.0404 0.593 -0.0404
1708780698.5986 0.597 -0.024 -0.0388 0.598 -0.0388
1708780698.6065 0.603 -0.024 -0.0357 0.603 -0.0357
1708780698.6148 0.609 -0.025 -0.0310 0.610 -0.0310
1708780698.6232 0.615 -0.025 -0.0326 0.615 -0.0326
1708780698.6321 0.620 -0.025 -0.0310 0.621 -0.0310
1708780698.6385 0.625 -0.025 -0.0279 0.626 -0.0279
1708780698.6469 0.631 -0.025 -0.0279 0.632 -0.0279
1708780698.6547 0.636 -0.025 -0.0248 0.637 -0.0248
1708780698.6623 0.641 -0.026 -0.0233 0.642 -0.0233
1708780698.6704 0.647 -0.026 -0.0202 0.648 -0.0202
1708780698.6790 0.653 -0.026 -0.0186 0.654 -0.0186
1708780698.6872 0.658 -0.026 -0.0186 0.659 -0.0186
1708780698.6943 0.664 -0.026 -0.0171 0.665 -0.0171
1708780698.7032 0.670 -0.026 -0.0140 0.670 -0.0140
1708780698.7103 0.675 -0.026 -0.0124 0.676 -0.0124
1708780698.7191 0.681 -0.026 -0.0109 0.681 -0.0109
1708780698.7278 0.686 -0.026 -0.0093 0.687 -0.0093
1708780698.7344 0.692 -0.026 -0.0062 0.693 -0.0062
1708780698.7427 0.698 -0.026 -0.0047 0.699 -0.0047
1708780698.7505 0.703 -0.026 -0.0031 0.704 -0.0031
1708780698.7587 0.708 -0.026 -0.0016 0.709 -0.0016
1708780698.7678 0.714 -0.026 -0.0000 0.715 -0.0000
1708780698.7750 0.721 -0.026 -0.0016 0.721 -0.0016
1708780698.7833 0.727 -0.026 -0.0000 0.728 -0.0000
1708780698.7906 0.732 -0.026 0.0016 0.733 0.0016
1708780698.7987 0.737 -0.026 0.0047 0.738 0.0047
1708780698.8074 0.742 -0.026 0.0062 0.743 0.0062
1708780698.8154 0.748 -0.026 0.0078 0.749 0.0078
1708780698.8228 0.754 -0.026 0.0078 0.755 0.0078
1708780698.8318 0.760 -0.026 0.0078 0.761 0.0078
1708780698.8390 0.765 -0.026 0.0109 0.766 0.0109
1708780698.8472 0.771 -0.026 0.0124 0.771 0.0124
1708780698.8553 0.777 -0.026 0.0155 0.777 0.0155
1708780698.8629 0.782 -0.026 0.0155 0.783 0.0155
1708780698.8713 0.787 -0.026 0.0140 0.788 0.0140
1708780698.8791 0.792 -0.026 0.0124 0.793 0.0124
1708780698.8863 0.798 -0.026 0.0140 0.799 0.0140
1708780698.8945 0.804 -0.026 0.0171 0.805 0.0171
1708780698.9025 0.809 -0.026 0.0186 0.810 0.0186
1708780698.9110 0.814 -0.025 0.0186 0.815 0.0186
1708780698.9187 0.820 -0.025 0.0171 0.821 0.0171
1708780698.9276 0.826 -0.025 0.0171 0.827 0.0171
1708780698.9351 0.831 -0.025 0.0186 0.832 0.0186
1708780698.9430 0.837 -0.025 0.0202 0.838 0.0202
1708780698.9510 0.842 -0.025 0.0186 0.843 0.0186
1708780698.9592 0.848 -0.025 0.0186 0.849 0.0186
1708780698.9670 0.853 -0.025 0.0186 0.854 0.0186
1708780698.9752 0.859 -0.025 0.0217 0.860 0.0217
1708780698.9832 0.865 -0.024 0.0202 0.865 0.0202
1708780698.9911 0.870 -0.024 0.0186 0.871 0.0186
1708780698.9983 0.876 -0.024 0.0186 0.877 0.0186
1708780699.0067 0.881 -0.024 0.0217 0.882 0.0217
1708780699.0145 0.886 -0.024 0.0233 0.887 0.0233
1708780699.0227 0.892 -0.024 0.0233 0.893 0.0233
1708780699.0305 0.898 -0.024 0.0217 0.899 0.0217
1708780699.0392 0.904 -0.024 0.0217 0.905 0.0217
1708780699.0464 0.909 -0.024 0.0233 0.910 0.0233
1708780699.0546 0.915 -0.023 0.0233 0.916 0.0233
1708780699.0625 0.920 -0.023 0.0217 0.921 0.0217
1708780699.0708 0.926 -0.023 0.0233 0.927 0.0233
1708780699.0787 0.932 -0.023 0.0248 0.932 0.0248
1708780699.0865 0.938 -0.023 0.0248 0.938 0.0248
1708780699.0947 0.943 -0.023 0.0217 0.944 0.0217
1708780699.1030 0.948 -0.023 0.0202 0.949 0.0202
1708780699.1108 0.954 -0.023 0.0186 0.955 0.0186
1708780699.1190 0.960 -0.022 0.0202 0.961 0.0202
1708780699.1272 0.966 -0.022 0.0186 0.966 0.0186
1708780699.1344 0.971 -0.022 0.0186 0.972 0.0186
1708780699.1426 0.976 -0.022 0.0186 0.977 0.0186
1708780699.1509 0.982 -0.022 0.0140 0.982 0.0140
1708780699.1588 0.987 -0.022 0.0124 0.988 0.0124
1708780699.1667 0.993 -0.022 0.0140 0.994 0.0140
1708780699.1748 0.999 -0.022 0.0124 1.000 0.0124
1708780699.1832 1.004 -0.022 0.0093 1.005 0.0093
1708780699.1904 1.010 -0.022 0.0078 1.011 0.0078
1708780699.1986 1.015 -0.022 0.0078 1.016 0.0078
1708780699.2063 1.021 -0.022 0.0062 1.021 0.0062
1708780699.2145 1.026 -0.022 0.0031 1.027 0.0031
1708780699.2227 1.032 -0.022 0.0016 1.033 0.0016
1708780699.2310 1.038 -0.022 0.0031 1.039 0.0031
1708780699.2392 1.044 -0.022 0.0047 1.045 0.0047
1708780699.2463 1.049 -0.022 -0.0000 1.050 -0.0000
1708780699.2544 1.055 -0.022 -0.0031 1.055 -0.0031
1708780699.2624 1.060 -0.022 -0.0031 1.061 -0.0031
1708780699.2707 1.065 -0.022 -0.0031 1.066 -0.0031
1708780699.2791 1.071 -0.022 -0.0062 1.072 -0.0062
1708780699.2873 1.077 -0.022 -0.0093 1.078 -0.0093
1708780699.2947 1.083 -0.022 -0.0109 1.084 -0.0109
1708780699.3025 1.088 -0.022 -0.0093 1.089 -0.0093
1708780699.3107 1.093 -0.022 -0.0093 1.094 -0.0093
1708780699.3189 1.099 -0.022 -0.0124 1.100 -0.0124
1708780699.3278 1.105 -0.022 -0.0155 1.106 -0.0155
1708780699.3352 1.111 -0.022 -0.0155 1.112 -0.0155
1708780699.3424 1.117 -0.022 -0.0140 1.118 -0.0140
1708780699.3514 1.122 -0.022 -0.0140 1.123 -0.0140
1708780699.3585 1.126 -0.022 -0.0155 1.127 -0.0155
1708780699.3668 1.132 -0.022 -0.0202 1.133 -0.0202
1708780699.3746 1.138 -0.022 -0.0233 1.139 -0.0233
1708780699.3854 1.144 -0.023 -0.0217 1.145 -0.0217
1708780699.3961 1.149 -0.023 -0.0217 1.150 -0.0217
1708780699.3997 1.155 -0.023 -0.0217 1.156 -0.0217
1708780699.4069 1.160 -0.023 -0.0248 1.161 -0.0248
1708780699.4146 1.164 -0.023 -0.0248 1.165 -0.0248
1708780699.4224 1.167 -0.023 -0.0233 1.168 -0.0233
1708780699.4313 1.174 -0.023 -0.0202 1.174 -0.0202
1708780699.4385 1.180 -0.023 -0.0233 1.181 -0.0233
1708780699.4471 1.186 -0.024 -0.0279 1.187 -0.0279
1708780699.4552 1.190 -0.024 -0.0279 1.191 -0.0279
1708780699.4624 1.195 -0.024 -0.0248 1.196 -0.0248
1708780699.4713 1.201 -0.024 -0.0248 1.202 -0.0248
1708780699.4791 1.207 -0.024 -0.0279 1.208 -0.0279
1708780699.4870 1.212 -0.024 -0.0326 1.213 -0.0326
1708780699.4949 1.217 -0.024 -0.0310 1.218 -0.0310
1708780699.5026 1.223 -0.025 -0.0310 1.224 -0.0310
1708780699.5108 1.229 -0.025 -0.0310 1.230 -0.0310
1708780699.5185 1.234 -0.025 -0.0341 1.235 -0.0341
1708780699.5280 1.239 -0.025 -0.0341 1.240 -0.0341
1708780699.5350 1.244 -0.025 -0.0326 1.245 -0.0326
1708780699.5427 1.250 -0.026 -0.0326 1.251 -0.0326
1708780699.5508 1.255 -0.026 -0.0388 1.256 -0.0388
1708780699.5586 1.261 -0.026 -0.0373 1.262 -0.0373
1708780699.5663 1.266 -0.026 -0.0341 1.267 -0.0341
1708780699.5745 1.272 -0.026 -0.0326 1.273 -0.0326
1708780699.5832 1.278 -0.026 -0.0357 1.279 -0.0357
1708780699.5903 1.283 -0.027 -0.0357 1.284 -0.0357
1708780699.5984 1.289 -0.027 -0.0341 1.290 -0.0341
1708780699.6067 1.294 -0.027 -0.0341 1.295 -0.0341
1708780699.6144 1.299 -0.027 -0.0326 1.300 -0.0326
1708780699.6224 1.305 -0.027 -0.0326 1.306 -0.0326
1708780699.6313 1.311 -0.028 -0.0341 1.312 -0.0341
1708780699.6391 1.316 -0.028 -0.0341 1.317 -0.0341
1708780699.6463 1.321 -0.028 -0.0326 1.322 -0.0326
1708780699.6546 1.327 -0.028 -0.0295 1.328 -0.0295
1708780699.6624 1.333 -0.028 -0.0295 1.334 -0.0295
1708780699.6708 1.338 -0.028 -0.0310 1.339 -0.0310
1708780699.6793 1.344 -0.029 -0.0279 1.345 -0.0279
1708780699.6871 1.350 -0.029 -0.0233 1.351 -0.0233
1708780699.6953 1.356 -0.029 -0.0248 1.357 -0.0248
1708780699.7024 1.361 -0.029 -0.0248 1.362 -0.0248
1708780699.7121 1.366 -0.029 -0.0217 1.367 -0.0217
1708780699.7193 1.372 -0.029 -0.0186 1.373 -0.0186
1708780699.7271 1.379 -0.029 -0.0171 1.380 -0.0171
1708780699.7349 1.384 -0.030 -0.0155 1.385 -0.0155
1708780699.7432 1.389 -0.030 -0.0140 1.390 -0.0140
1708780699.7504 1.394 -0.030 -0.0124 1.395 -0.0124
1708780699.7590 1.400 -0.030 -0.0124 1.401 -0.0124
1708780699.7672 1.406 -0.030 -0.0109 1.407 -0.0109
1708780699.7744 1.412 -0.030 -0.0078 1.413 -0.0078
1708780699.7829 1.418 -0.030 -0.0031 1.419 -0.0031
1708780699.7904 1.423 -0.030 -0.0016 1.424 -0.0016
1708780699.7988 1.428 -0.030 -0.0047 1.429 -0.0047
1708780699.8065 1.434 -0.030 -0.0062 1.435 -0.0062
1708780699.8146 1.440 -0.030 -0.0016 1.441 -0.0016
1708780699.8229 1.445 -0.030 0.0031 1.446 0.0031
1708780699.8459 1.461 -0.030 0.0062 1.462 0.0062
1708780699.8601 1.467 -0.030 0.0062 1.468 0.0062
1708780699.8628 1.472 -0.030 0.0062 1.473 0.0062
1708780699.8684 1.479 -0.030 0.0078 1.480 0.0078
1708780699.8766 1.483 -0.030 0.0062 1.484 0.0062
1708780699.8844 1.485 -0.030 0.0062 1.486 0.0062
1708780699.8935 1.488 -0.030 0.0078 1.489 0.0078
1708780699.9007 1.494 -0.030 0.0124 1.495 0.0124
1708780699.9086 1.501 -0.030 0.0186 1.502 0.0186
1708780699.9175 1.506 -0.029 0.0186 1.507 0.0186
1708780699.9244 1.510 -0.029 0.0171 1.511 0.0171
1708780699.9322 1.515 -0.029 0.0155 1.516 0.0155
1708780699.9409 1.521 -0.029 0.0171 1.522 0.0171
1708780699.9482 1.526 -0.029 0.0233 1.527 0.0233
1708780699.9568 1.531 -0.029 0.0248 1.532 0.0248
1708780699.9656 1.536 -0.029 0.0248 1.537 0.0248
1708780699.9721 1.542 -0.029 0.0202 1.543 0.0202
1708780699.9806 1.548 -0.029 0.0217 1.549 0.0217
1708780699.9891 1.553 -0.028 0.0264 1.554 0.0264
1708780699.9962 1.558 -0.028 0.0279 1.559 0.0279
1708780700.0039 1.563 -0.028 0.0264 1.564 0.0264
1708780700.0129 1.568 -0.028 0.0264 1.569 0.0264
1708780700.0206 1.573 -0.028 0.0279 1.574 0.0279
1708780700.0284 1.578 -0.028 0.0279 1.579 0.0279
1708780700.0372 1.583 -0.028 0.0295 1.584 0.0295
1708780700.0454 1.588 -0.027 0.0326 1.589 0.0326
1708780700.0522 1.595 -0.027 0.0373 1.596 0.0373
1708780700.0616 1.600 -0.027 0.0357 1.601 0.0357
1708780700.0682 1.606 -0.027 0.0357 1.607 0.0357
1708780700.0760 1.612 -0.027 0.0357 1.613 0.0357
1708780700.0855 1.616 -0.026 0.0404 1.617 0.0404
1708780700.0921 1.621 -0.026 0.0419 1.623 0.0419
1708780700.1007 1.627 -0.026 0.0404 1.628 0.0404
1708780700.1096 1.633 -0.026 0.0404 1.634 0.0404
1708780700.1171 1.638 -0.026 0.0419 1.639 0.0419
1708780700.1239 1.644 -0.025 0.0419 1.646 0.0419
1708780700.1329 1.650 -0.025 0.0419 1.651 0.0419
1708780700.1406 1.654 -0.025 0.0419 1.655 0.0419
1708780700.1484 1.660 -0.025 0.0404 1.662 0.0404
1708780700.1580 1.667 -0.024 0.0419 1.668 0.0419
1708780700.1647 1.672 -0.024 0.0450 1.673 0.0450
1708780700.1726 1.677 -0.024 0.0497 1.679 0.0497
1708780700.1818 1.683 -0.024 0.0512 1.684 0.0512
1708780700.1896 1.688 -0.023 0.0481 1.689 0.0481
1708780700.1966 1.694 -0.023 0.0512 1.695 0.0512
1708780700.2055 1.700 -0.023 0.0559 1.701 0.0559
1708780700.2121 1.704 -0.023 0.0574 1.705 0.0574
1708780700.2203 1.709 -0.022 0.0574 1.710 0.0574
1708780700.2300 1.715 -0.022 0.0543 1.716 0.0543
1708780700.2366 1.721 -0.022 0.0543 1.722 0.0543
1708780700.2453 1.728 -0.021 0.0559 1.729 0.0559
1708780700.2537 1.732 -0.021 0.0574 1.733 0.0574
1708780700.2605 1.737 -0.021 0.0590 1.738 0.0590
1708780700.2686 1.742 -0.020 0.0574 1.744 0.0574
1708780700.2769 1.748 -0.020 0.0528 1.749 0.0528
1708780700.2849 1.754 -0.020 0.0543 1.755 0.0543
1708780700.2921 1.759 -0.019 0.0605 1.761 0.0605
1708780700.3020 1.765 -0.019 0.0605 1.766 0.0605
1708780700.3086 1.770 -0.019 0.0574 1.772 0.0574
1708780700.3166 1.776 -0.018 0.0512 1.778 0.0512
1708780700.3261 1.782 -0.018 0.0512 1.783 0.0512
1708780700.3329 1.787 -0.018 0.0559 1.788 0.0559
1708780700.3409 1.793 -0.018 0.0636 1.794 0.0636
1708780700.3497 1.799 -0.017 0.0605 1.800 0.0605
1708780700.3567 1.804 -0.017 0.0528 1.805 0.0528
1708780700.3647 1.809 -0.017 0.0481 1.811 0.0481
1708780700.3737 1.815 -0.016 0.0528 1.816 0.0528
1708780700.3803 1.820 -0.016 0.0605 1.822 0.0605
1708780700.3881 1.827 -0.016 0.0621 1.828 0.0621
1708780700.3970 1.831 -0.015 0.0559 1.833 0.0559
1708780700.4047 1.836 -0.015 0.0512 1.838 0.0512
1708780700.4125 1.842 -0.015 0.0528 1.843 0.0528
1708780700.4215 1.848 -0.014 0.0543 1.849 0.0543
1708780700.4282 1.854 -0.014 0.0543 1.855 0.0543
1708780700.4360 1.859 -0.014 0.0528 1.861 0.0528
1708780700.4456 1.864 -0.014 0.0528 1.865 0.0528
1708780700.4529 1.869 -0.013 0.0543 1.870 0.0543
1708780700.4607 1.875 -0.013 0.0559 1.877 0.0559
1708780700.4704 1.881 -0.013 0.0543 1.883 0.0543
1708780700.4771 1.886 -0.012 0.0543 1.888 0.0543
1708780700.4841 1.892 -0.012 0.0559 1.893 0.0559
1708780700.4932 1.897 -0.012 0.0559 1.899 0.0559
1708780700.5006 1.902 -0.011 0.0574 1.904 0.0574
1708780700.5086 1.908 -0.011 0.0574 1.909 0.0574
1708780700.5177 1.914 -0.011 0.0590 1.915 0.0590
1708780700.5245 1.920 -0.010 0.0590 1.921 0.0590
1708780700.5326 1.926 -0.010 0.0559 1.927 0.0559
1708780700.5417 1.931 -0.010 0.0559 1.932 0.0559
1708780700.5481 1.935 -0.010 0.0590 1.937 0.0590
1708780700.5561 1.941 -0.009 0.0605 1.943 0.0605
1708780700.5652 1.947 -0.009 0.0605 1.948 0.0605
1708780700.5726 1.952 -0.009 0.0605 1.954 0.0605
1708780700.5808 1.958 -0.008 0.0574 1.959 0.0574
1708780700.5902 1.963 -0.008 0.0574 1.965 0.0574
1708780700.5964 1.969 -0.008 0.0621 1.971 0.0621
1708780700.6044 1.975 -0.007 0.0621 1.977 0.0621
1708780700.6134 1.980 -0.007 0.0590 1.981 0.0590
1708780700.6200 1.985 -0.007 0.0559 1.987 0.0559
1708780700.6280 1.992 -0.006 0.0559 1.993 0.0559
1708780700.6374 1.997 -0.006 0.0590 1.999 0.0590
1708780700.6448 2.002 -0.006 0.0621 2.004 0.0621
1708780700.6528 2.008 -0.005 0.0636 2.009 0.0636
1708780700.6616 2.013 -0.005 0.0590 2.015 0.0590
1708780700.6681 2.019 -0.005 0.0543 2.021 0.0543
1708780700.6760 2.025 -0.004 0.0559 2.026 0.0559
1708780700.6852 2.029 -0.004 0.0605 2.031 0.0605
1708780700.6929 2.034 -0.004 0.0605 2.036 0.0605
1708780700.7007 2.041 -0.003 0.0559 2.043 0.0559
1708780700.7102 2.047 -0.003 0.0543 2.049 0.0543
1708780700.7161 2.052 -0.003 0.0559 2.054 0.0559
1708780700.7241 2.057 -0.002 0.0559 2.059 0.0559
1708780700.7336 2.062 -0.002 0.0543 2.063 0.0543
1708780700.7409 2.067 -0.002 0.0543 2.069 0.0543
1708780700.7484 2.074 -0.002 0.0543 2.076 0.0543
1708780700.7574 2.080 -0.001 0.0528 2.082 0.0528
1708780700.7641 2.085 -0.001 0.0528 2.086 0.0528
1708780700.7724 2.089 -0.001 0.0528 2.091 0.0528
1708780700.7817 2.095 -0.000 0.0528 2.097 0.0528
1708780700.7883 2.101 -0.000 0.0528 2.103 0.0528
1708780700.7961 2.108 0.000 0.0512 2.109 0.0512
1708780700.8053 2.112 0.001 0.0497 2.114 0.0497
1708780700.8119 2.117 0.001 0.0481 2.119 0.0481
1708780700.8210 2.122 0.001 0.0481 2.124 0.0481
1708780700.8291 2.129 0.001 0.0466 2.130 0.0466
1708780700.8382 2.135 0.002 0.0450 2.137 0.0450
1708780700.8451 2.140 0.002 0.0466 2.142 0.0466
