% Pose without folding and reset (log_20240219_131726.120/log_pose_abs.txt)
% 1 	Time (sec)
% 2,3 	Position x,y (m)
% 4 	heading (rad)
% 5 	Driven distance (m) - signed
% 6 	Turned angle (rad) - signed
1708345046.9300 0.000 0.000 0.0000 0.000 0.0000
1708345046.9382 0.000 0.000 0.0000 0.000 0.0000
1708345046.9455 0.000 0.000 0.0000 0.000 0.0000
1708345046.9530 0.000 0.000 0.0000 0.000 0.0000
1708345046.9609 0.000 0.000 0.0000 0.000 0.0000
1708345046.9689 0.000 0.000 0.0000 0.000 0.0000
1708345046.9774 0.000 0.000 0.0000 0.000 0.0000
1708345046.9860 0.000 0.000 0.0000 0.000 0.0000
1708345046.9926 0.000 0.000 0.0000 0.000 0.0000
1708345047.0012 0.000 0.000 0.0000 0.000 0.0000
1708345047.0091 0.000 0.000 0.0000 0.000 0.0000
1708345047.0171 0.000 0.000 0.0000 0.000 0.0000
1708345047.0249 0.000 0.000 0.0000 0.000 0.0000
1708345047.0341 0.000 0.000 0.0000 0.000 0.0000
1708345047.0415 0.000 0.000 0.0000 0.000 0.0000
1708345047.0492 0.000 0.000 0.0000 0.000 0.0000
1708345047.0582 0.000 0.000 0.0016 0.000 0.0016
1708345047.0651 0.001 0.000 0.0047 0.001 0.0047
1708345047.0728 0.002 0.000 -0.0016 0.002 -0.0016
1708345047.0817 0.003 0.000 -0.0031 0.003 -0.0031
1708345047.0894 0.003 -0.000 -0.0016 0.003 -0.0016
1708345047.0970 0.004 -0.000 0.0000 0.004 0.0000
1708345047.1062 0.005 -0.000 0.0016 0.005 0.0016
1708345047.1132 0.007 0.000 0.0016 0.007 0.0016
1708345047.1208 0.008 0.000 0.0016 0.008 0.0016
1708345047.1298 0.010 0.000 0.0031 0.010 0.0031
1708345047.1374 0.012 0.000 0.0031 0.012 0.0031
1708345047.1451 0.014 0.000 0.0016 0.014 0.0016
1708345047.1542 0.016 0.000 0.0031 0.016 0.0031
1708345047.1613 0.018 0.000 0.0031 0.018 0.0031
1708345047.1698 0.020 0.000 0.0031 0.020 0.0031
1708345047.1779 0.023 0.000 0.0031 0.023 0.0031
1708345047.1856 0.025 0.000 0.0031 0.025 0.0031
1708345047.1933 0.028 0.000 0.0016 0.028 0.0016
1708345047.2013 0.030 0.000 -0.0000 0.030 -0.0000
1708345047.2095 0.032 0.000 0.0016 0.032 0.0016
1708345047.2169 0.035 0.000 0.0016 0.035 0.0016
1708345047.2261 0.038 0.000 0.0016 0.038 0.0016
1708345047.2332 0.040 0.000 -0.0000 0.040 0.0000
1708345047.2414 0.042 0.000 0.0016 0.042 0.0016
1708345047.2495 0.045 0.000 -0.0000 0.045 0.0000
1708345047.2577 0.047 0.000 -0.0000 0.047 0.0000
1708345047.2651 0.050 0.000 -0.0000 0.050 0.0000
1708345047.2743 0.053 0.000 -0.0000 0.053 0.0000
1708345047.2813 0.055 0.000 -0.0000 0.055 0.0000
1708345047.2896 0.057 0.000 -0.0000 0.057 0.0000
1708345047.2977 0.060 0.000 -0.0000 0.060 0.0000
1708345047.3056 0.063 0.000 -0.0000 0.063 0.0000
1708345047.3133 0.065 0.000 -0.0000 0.065 0.0000
1708345047.3214 0.067 0.000 -0.0000 0.067 0.0000
1708345047.3296 0.069 0.000 -0.0016 0.069 -0.0016
1708345047.3369 0.072 0.000 -0.0016 0.072 -0.0016
1708345047.3461 0.075 0.000 -0.0016 0.075 -0.0016
1708345047.3529 0.077 0.000 -0.0016 0.077 -0.0016
1708345047.3616 0.079 0.000 0.0000 0.079 0.0000
1708345047.3697 0.081 0.000 0.0000 0.081 0.0000
1708345047.3768 0.084 0.000 -0.0016 0.084 -0.0016
1708345047.3862 0.086 0.000 -0.0031 0.086 -0.0031
1708345047.3943 0.088 0.000 -0.0016 0.088 -0.0016
1708345047.4011 0.091 0.000 -0.0000 0.091 0.0000
1708345047.4087 0.094 0.000 -0.0000 0.094 0.0000
1708345047.4179 0.096 0.000 -0.0031 0.096 -0.0031
1708345047.4257 0.098 0.000 -0.0031 0.098 -0.0031
1708345047.4333 0.100 0.000 -0.0000 0.100 0.0000
1708345047.4418 0.103 0.000 -0.0000 0.103 0.0000
1708345047.4489 0.106 0.000 -0.0031 0.106 -0.0031
1708345047.4567 0.107 0.000 -0.0047 0.107 -0.0047
1708345047.4659 0.110 0.000 -0.0016 0.110 -0.0016
1708345047.4730 0.112 0.000 0.0016 0.112 0.0016
1708345047.4817 0.115 0.000 0.0000 0.115 0.0000
1708345047.4902 0.117 0.000 -0.0047 0.117 -0.0047
1708345047.4973 0.119 0.000 -0.0031 0.119 -0.0031
1708345047.5050 0.121 0.000 0.0000 0.121 0.0000
1708345047.5142 0.124 0.000 0.0000 0.124 0.0000
1708345047.5213 0.127 -0.000 -0.0031 0.127 -0.0031
1708345047.5298 0.129 -0.000 -0.0062 0.129 -0.0062
1708345047.5375 0.132 -0.000 -0.0031 0.132 -0.0031
1708345047.5456 0.134 -0.000 0.0047 0.134 0.0047
1708345047.5533 0.136 -0.000 0.0031 0.136 0.0031
1708345047.5614 0.138 -0.000 -0.0047 0.138 -0.0047
1708345047.5696 0.141 -0.000 -0.0047 0.141 -0.0047
1708345047.5771 0.144 -0.000 0.0016 0.144 0.0016
1708345047.5870 0.146 -0.000 0.0031 0.146 0.0031
1708345047.5930 0.147 -0.000 0.0000 0.147 0.0000
1708345047.6017 0.150 -0.000 -0.0031 0.150 -0.0031
1708345047.6099 0.153 -0.000 0.0000 0.153 0.0000
1708345047.6170 0.155 -0.000 0.0047 0.155 0.0047
1708345047.6255 0.157 -0.000 0.0047 0.157 0.0047
1708345047.6336 0.160 -0.000 -0.0016 0.160 -0.0016
1708345047.6414 0.162 -0.000 -0.0047 0.162 -0.0047
1708345047.6490 0.165 -0.000 -0.0016 0.165 -0.0016
1708345047.6582 0.167 -0.000 0.0031 0.167 0.0031
1708345047.6650 0.169 -0.000 0.0016 0.169 0.0016
1708345047.6737 0.172 -0.000 -0.0016 0.172 -0.0016
1708345047.6818 0.174 -0.000 0.0016 0.174 0.0016
1708345047.6896 0.177 -0.000 0.0047 0.177 0.0047
1708345047.6973 0.179 -0.000 0.0047 0.179 0.0047
1708345047.7054 0.181 0.000 0.0047 0.181 0.0047
1708345047.7133 0.184 0.000 0.0062 0.184 0.0062
1708345047.7210 0.186 0.000 0.0093 0.186 0.0093
1708345047.7302 0.188 0.000 0.0140 0.188 0.0140
1708345047.7369 0.190 0.000 0.0186 0.190 0.0186
1708345047.7456 0.193 0.000 0.0217 0.193 0.0217
1708345047.7538 0.196 0.000 0.0248 0.196 0.0248
1708345047.7617 0.198 0.000 0.0295 0.198 0.0295
1708345047.7694 0.200 0.000 0.0388 0.200 0.0388
1708345047.7775 0.203 0.000 0.0404 0.203 0.0404
1708345047.7863 0.205 0.001 0.0404 0.205 0.0404
1708345047.7928 0.208 0.001 0.0450 0.208 0.0450
1708345047.8018 0.210 0.001 0.0559 0.210 0.0559
1708345047.8090 0.212 0.001 0.0621 0.212 0.0621
1708345047.8177 0.214 0.001 0.0621 0.214 0.0621
1708345047.8258 0.217 0.001 0.0636 0.217 0.0636
1708345047.8329 0.220 0.001 0.0683 0.220 0.0683
1708345047.8413 0.222 0.002 0.0745 0.222 0.0745
1708345047.8503 0.224 0.002 0.0792 0.224 0.0792
1708345047.8574 0.226 0.002 0.0776 0.226 0.0776
1708345047.8651 0.229 0.002 0.0792 0.229 0.0792
1708345047.8743 0.231 0.002 0.0854 0.231 0.0854
1708345047.8814 0.233 0.002 0.0900 0.233 0.0900
1708345047.8895 0.236 0.003 0.0869 0.236 0.0869
1708345047.8976 0.238 0.003 0.0838 0.238 0.0838
1708345047.9048 0.240 0.003 0.0854 0.240 0.0854
1708345047.9135 0.243 0.003 0.0869 0.243 0.0869
1708345047.9216 0.245 0.003 0.0838 0.245 0.0838
1708345047.9294 0.248 0.004 0.0792 0.248 0.0792
1708345047.9376 0.250 0.004 0.0745 0.250 0.0745
1708345047.9457 0.252 0.004 0.0745 0.252 0.0745
1708345047.9528 0.254 0.004 0.0683 0.255 0.0683
1708345047.9616 0.257 0.004 0.0621 0.257 0.0621
1708345047.9697 0.259 0.004 0.0543 0.259 0.0543
1708345047.9768 0.262 0.005 0.0466 0.262 0.0466
1708345047.9861 0.264 0.005 0.0404 0.264 0.0404
1708345047.9942 0.266 0.005 0.0326 0.266 0.0326
1708345048.0013 0.268 0.005 0.0248 0.269 0.0248
1708345048.0090 0.271 0.005 0.0124 0.271 0.0124
1708345048.0182 0.273 0.005 0.0016 0.273 0.0016
1708345048.0251 0.275 0.005 -0.0078 0.276 -0.0078
1708345048.0328 0.278 0.005 -0.0186 0.278 -0.0186
1708345048.0416 0.280 0.005 -0.0310 0.281 -0.0310
1708345048.0497 0.282 0.005 -0.0404 0.283 -0.0404
1708345048.0574 0.285 0.005 -0.0528 0.285 -0.0528
1708345048.0655 0.288 0.004 -0.0667 0.288 -0.0667
1708345048.0735 0.290 0.004 -0.0792 0.290 -0.0792
1708345048.0812 0.292 0.004 -0.0931 0.292 -0.0931
1708345048.0899 0.295 0.004 -0.1071 0.295 -0.1071
1708345048.0971 0.297 0.004 -0.1211 0.297 -0.1211
1708345048.1048 0.299 0.003 -0.1366 0.299 -0.1366
1708345048.1141 0.302 0.003 -0.1521 0.302 -0.1521
1708345048.1209 0.304 0.003 -0.1661 0.305 -0.1661
1708345048.1296 0.307 0.002 -0.1832 0.307 -0.1832
1708345048.1374 0.309 0.002 -0.1971 0.309 -0.1971
1708345048.1456 0.312 0.001 -0.2111 0.312 -0.2111
1708345048.1533 0.314 0.001 -0.2251 0.315 -0.2251
1708345048.1623 0.316 0.000 -0.2375 0.317 -0.2375
1708345048.1694 0.318 -0.000 -0.2530 0.319 -0.2530
1708345048.1771 0.321 -0.001 -0.2670 0.321 -0.2670
1708345048.1869 0.324 -0.002 -0.2794 0.324 -0.2794
1708345048.1930 0.326 -0.003 -0.2887 0.327 -0.2887
1708345048.2017 0.328 -0.003 -0.2996 0.329 -0.2996
1708345048.2096 0.330 -0.004 -0.3120 0.331 -0.3120
1708345048.2168 0.332 -0.005 -0.3275 0.333 -0.3275
1708345048.2255 0.335 -0.006 -0.3399 0.336 -0.3399
1708345048.2337 0.338 -0.006 -0.3477 0.339 -0.3477
1708345048.2414 0.340 -0.007 -0.3601 0.342 -0.3601
1708345048.2499 0.342 -0.008 -0.3741 0.344 -0.3741
1708345048.2581 0.344 -0.009 -0.3819 0.346 -0.3819
1708345048.2652 0.346 -0.010 -0.3850 0.348 -0.3850
1708345048.2729 0.348 -0.011 -0.3912 0.351 -0.3912
1708345048.2821 0.350 -0.012 -0.4051 0.353 -0.4051
1708345048.2887 0.352 -0.012 -0.4176 0.355 -0.4176
1708345048.2973 0.354 -0.013 -0.4222 0.357 -0.4222
1708345048.3054 0.357 -0.014 -0.4238 0.360 -0.4238
1708345048.3136 0.359 -0.015 -0.4284 0.362 -0.4284
1708345048.3213 0.361 -0.016 -0.4377 0.364 -0.4377
1708345048.3294 0.363 -0.017 -0.4424 0.366 -0.4424
1708345048.3372 0.365 -0.018 -0.4439 0.369 -0.4439
1708345048.3457 0.368 -0.019 -0.4455 0.372 -0.4455
1708345048.3538 0.369 -0.020 -0.4502 0.374 -0.4502
1708345048.3609 0.371 -0.021 -0.4548 0.376 -0.4548
1708345048.3696 0.373 -0.022 -0.4533 0.378 -0.4533
1708345048.3778 0.376 -0.023 -0.4548 0.381 -0.4548
1708345048.3864 0.378 -0.024 -0.4564 0.383 -0.4564
1708345048.3930 0.380 -0.025 -0.4564 0.385 -0.4564
1708345048.4022 0.382 -0.026 -0.4533 0.388 -0.4533
1708345048.4093 0.384 -0.028 -0.4517 0.390 -0.4517
1708345048.4170 0.386 -0.029 -0.4502 0.393 -0.4502
1708345048.4258 0.388 -0.029 -0.4517 0.395 -0.4517
1708345048.4337 0.390 -0.030 -0.4486 0.397 -0.4486
1708345048.4409 0.393 -0.032 -0.4439 0.400 -0.4439
1708345048.4501 0.395 -0.033 -0.4455 0.402 -0.4455
1708345048.4572 0.397 -0.034 -0.4455 0.404 -0.4455
1708345048.4649 0.399 -0.034 -0.4408 0.406 -0.4408
1708345048.4741 0.401 -0.036 -0.4362 0.409 -0.4362
1708345048.4810 0.404 -0.037 -0.4362 0.412 -0.4362
1708345048.4893 0.406 -0.038 -0.4362 0.414 -0.4362
1708345048.4974 0.408 -0.039 -0.4315 0.416 -0.4315
1708345048.5056 0.410 -0.040 -0.4253 0.419 -0.4253
1708345048.5133 0.412 -0.041 -0.4207 0.421 -0.4207
1708345048.5223 0.415 -0.042 -0.4207 0.424 -0.4207
1708345048.5294 0.417 -0.043 -0.4238 0.426 -0.4238
1708345048.5377 0.419 -0.044 -0.4191 0.429 -0.4191
1708345048.5459 0.421 -0.045 -0.4113 0.431 -0.4113
1708345048.5530 0.423 -0.046 -0.4067 0.433 -0.4067
1708345048.5617 0.425 -0.046 -0.4082 0.435 -0.4082
1708345048.5696 0.428 -0.048 -0.4113 0.438 -0.4113
1708345048.5768 0.430 -0.049 -0.4082 0.441 -0.4082
1708345048.5862 0.432 -0.050 -0.3989 0.443 -0.3989
1708345048.5933 0.434 -0.050 -0.3943 0.445 -0.3943
1708345048.6015 0.436 -0.051 -0.3943 0.447 -0.3943
1708345048.6100 0.439 -0.052 -0.3958 0.450 -0.3958
1708345048.6182 0.441 -0.053 -0.3943 0.453 -0.3943
1708345048.6253 0.444 -0.054 -0.3896 0.455 -0.3896
1708345048.6330 0.445 -0.055 -0.3834 0.457 -0.3834
1708345048.6418 0.447 -0.056 -0.3850 0.459 -0.3850
1708345048.6489 0.449 -0.057 -0.3896 0.462 -0.3896
1708345048.6574 0.452 -0.058 -0.3912 0.464 -0.3912
1708345048.6656 0.454 -0.059 -0.3850 0.467 -0.3850
1708345048.6727 0.456 -0.059 -0.3788 0.469 -0.3787
1708345048.6815 0.458 -0.060 -0.3803 0.471 -0.3803
1708345048.6903 0.460 -0.061 -0.3865 0.474 -0.3865
1708345048.6974 0.463 -0.062 -0.3912 0.476 -0.3912
1708345048.7049 0.465 -0.063 -0.3865 0.478 -0.3865
1708345048.7143 0.467 -0.064 -0.3788 0.481 -0.3787
1708345048.7214 0.469 -0.065 -0.3803 0.483 -0.3803
1708345048.7291 0.471 -0.066 -0.3850 0.485 -0.3850
1708345048.7379 0.474 -0.066 -0.3865 0.488 -0.3865
1708345048.7448 0.476 -0.067 -0.3819 0.490 -0.3819
1708345048.7536 0.479 -0.068 -0.3772 0.493 -0.3772
1708345048.7619 0.481 -0.069 -0.3803 0.495 -0.3803
1708345048.7691 0.483 -0.070 -0.3865 0.498 -0.3865
1708345048.7769 0.485 -0.071 -0.3850 0.500 -0.3850
1708345048.7868 0.487 -0.072 -0.3819 0.502 -0.3819
1708345048.7937 0.489 -0.073 -0.3834 0.505 -0.3834
1708345048.8014 0.492 -0.074 -0.3865 0.508 -0.3865
1708345048.8096 0.494 -0.075 -0.3896 0.510 -0.3896
1708345048.8178 0.496 -0.075 -0.3881 0.512 -0.3881
1708345048.8254 0.498 -0.076 -0.3865 0.514 -0.3865
1708345048.8336 0.501 -0.077 -0.3881 0.517 -0.3881
1708345048.8410 0.503 -0.078 -0.3927 0.520 -0.3927
1708345048.8487 0.505 -0.079 -0.3943 0.522 -0.3943
1708345048.8580 0.507 -0.080 -0.3927 0.523 -0.3927
1708345048.8651 0.509 -0.081 -0.3943 0.526 -0.3943
1708345048.8728 0.511 -0.082 -0.3989 0.529 -0.3989
1708345048.8817 0.514 -0.083 -0.4005 0.531 -0.4005
1708345048.8896 0.515 -0.083 -0.3989 0.533 -0.3989
1708345048.8973 0.517 -0.084 -0.4020 0.535 -0.4020
1708345048.9055 0.520 -0.086 -0.4051 0.538 -0.4051
1708345048.9137 0.523 -0.087 -0.4067 0.541 -0.4067
1708345048.9214 0.524 -0.087 -0.4067 0.543 -0.4067
1708345048.9299 0.526 -0.088 -0.4098 0.545 -0.4098
1708345048.9377 0.529 -0.089 -0.4098 0.547 -0.4098
1708345048.9453 0.531 -0.090 -0.4129 0.550 -0.4129
1708345048.9535 0.533 -0.091 -0.4145 0.552 -0.4145
1708345048.9618 0.535 -0.092 -0.4160 0.554 -0.4160
1708345048.9703 0.537 -0.093 -0.4160 0.556 -0.4160
1708345048.9773 0.540 -0.094 -0.4160 0.559 -0.4160
1708345048.9862 0.543 -0.095 -0.4176 0.563 -0.4176
1708345048.9928 0.544 -0.096 -0.4222 0.565 -0.4222
1708345049.0020 0.546 -0.097 -0.4222 0.567 -0.4222
1708345049.0091 0.548 -0.098 -0.4176 0.568 -0.4176
1708345049.0176 0.550 -0.099 -0.4129 0.571 -0.4129
1708345049.0258 0.553 -0.100 -0.4176 0.574 -0.4176
1708345049.0329 0.556 -0.101 -0.4238 0.577 -0.4238
1708345049.0412 0.557 -0.102 -0.4238 0.579 -0.4238
1708345049.0493 0.559 -0.103 -0.4176 0.581 -0.4176
1708345049.0576 0.561 -0.104 -0.4160 0.583 -0.4160
1708345049.0651 0.564 -0.105 -0.4207 0.586 -0.4207
1708345049.0743 0.566 -0.106 -0.4253 0.588 -0.4253
1708345049.0814 0.568 -0.107 -0.4238 0.591 -0.4238
1708345049.0897 0.570 -0.108 -0.4191 0.593 -0.4191
1708345049.0979 0.573 -0.109 -0.4207 0.595 -0.4207
1708345049.1048 0.575 -0.110 -0.4253 0.598 -0.4253
1708345049.1135 0.577 -0.111 -0.4253 0.600 -0.4253
1708345049.1217 0.579 -0.112 -0.4222 0.602 -0.4222
1708345049.1287 0.581 -0.113 -0.4191 0.605 -0.4191
1708345049.1371 0.583 -0.114 -0.4222 0.607 -0.4222
1708345049.1463 0.585 -0.114 -0.4253 0.609 -0.4253
1708345049.1532 0.587 -0.115 -0.4222 0.612 -0.4222
1708345049.1609 0.590 -0.117 -0.4191 0.614 -0.4191
1708345049.1702 0.592 -0.117 -0.4191 0.616 -0.4191
1708345049.1773 0.594 -0.118 -0.4222 0.619 -0.4222
1708345049.1856 0.596 -0.119 -0.4222 0.621 -0.4222
1708345049.1937 0.598 -0.120 -0.4191 0.624 -0.4191
1708345049.2017 0.601 -0.121 -0.4160 0.626 -0.4160
1708345049.2094 0.602 -0.122 -0.4176 0.628 -0.4176
1708345049.2176 0.605 -0.123 -0.4222 0.631 -0.4222
1708345049.2247 0.607 -0.124 -0.4222 0.633 -0.4222
1708345049.2335 0.609 -0.125 -0.4191 0.636 -0.4191
1708345049.2421 0.611 -0.126 -0.4160 0.637 -0.4160
1708345049.2492 0.613 -0.127 -0.4160 0.640 -0.4160
1708345049.2569 0.616 -0.128 -0.4160 0.643 -0.4160
1708345049.2661 0.618 -0.129 -0.4176 0.645 -0.4176
1708345049.2731 0.620 -0.130 -0.4160 0.647 -0.4160
1708345049.2807 0.622 -0.131 -0.4145 0.649 -0.4145
1708345049.2893 0.625 -0.132 -0.4145 0.652 -0.4145
1708345049.2975 0.627 -0.133 -0.4145 0.655 -0.4145
1708345049.3052 0.628 -0.134 -0.4160 0.657 -0.4160
1708345049.3134 0.631 -0.135 -0.4145 0.659 -0.4145
1708345049.3216 0.634 -0.136 -0.4113 0.662 -0.4113
1708345049.3301 0.636 -0.137 -0.4098 0.665 -0.4098
1708345049.3378 0.638 -0.138 -0.4113 0.667 -0.4113
1708345049.3449 0.640 -0.139 -0.4113 0.669 -0.4113
1708345049.3536 0.642 -0.140 -0.4082 0.672 -0.4082
1708345049.3618 0.644 -0.141 -0.4036 0.674 -0.4036
1708345049.3690 0.647 -0.142 -0.4051 0.677 -0.4051
1708345049.3775 0.649 -0.142 -0.4067 0.679 -0.4067
1708345049.3863 0.651 -0.143 -0.4051 0.681 -0.4051
1708345049.3934 0.653 -0.144 -0.4020 0.684 -0.4020
1708345049.4011 0.656 -0.145 -0.3989 0.686 -0.3989
1708345049.4103 0.657 -0.146 -0.4020 0.688 -0.4020
1708345049.4174 0.659 -0.147 -0.4036 0.690 -0.4036
1708345049.4256 0.662 -0.148 -0.4020 0.693 -0.4020
1708345049.4339 0.665 -0.149 -0.4005 0.696 -0.4005
1708345049.4416 0.667 -0.150 -0.3989 0.698 -0.3989
1708345049.4493 0.669 -0.151 -0.3958 0.700 -0.3958
1708345049.4575 0.670 -0.152 -0.3958 0.702 -0.3958
1708345049.4655 0.673 -0.153 -0.3989 0.705 -0.3989
1708345049.4732 0.675 -0.154 -0.3958 0.708 -0.3958
1708345049.4814 0.678 -0.155 -0.3927 0.710 -0.3927
1708345049.4892 0.679 -0.155 -0.3896 0.712 -0.3896
1708345049.4968 0.681 -0.156 -0.3881 0.714 -0.3881
1708345049.5061 0.684 -0.157 -0.3850 0.717 -0.3850
1708345049.5130 0.686 -0.158 -0.3819 0.720 -0.3819
1708345049.5218 0.689 -0.159 -0.3788 0.722 -0.3787
1708345049.5299 0.690 -0.160 -0.3756 0.723 -0.3756
1708345049.5376 0.692 -0.161 -0.3741 0.726 -0.3741
1708345049.5453 0.695 -0.162 -0.3694 0.729 -0.3694
1708345049.5535 0.697 -0.163 -0.3663 0.731 -0.3663
1708345049.5615 0.699 -0.163 -0.3632 0.733 -0.3632
1708345049.5691 0.701 -0.164 -0.3617 0.735 -0.3617
1708345049.5783 0.704 -0.165 -0.3570 0.738 -0.3570
1708345049.5861 0.707 -0.166 -0.3539 0.741 -0.3539
1708345049.5938 0.709 -0.167 -0.3508 0.743 -0.3508
1708345049.6017 0.710 -0.167 -0.3477 0.745 -0.3477
1708345049.6088 0.713 -0.168 -0.3462 0.748 -0.3462
1708345049.6175 0.715 -0.169 -0.3430 0.750 -0.3430
1708345049.6257 0.717 -0.170 -0.3415 0.753 -0.3415
1708345049.6328 0.719 -0.171 -0.3399 0.755 -0.3399
1708345049.6411 0.722 -0.171 -0.3384 0.757 -0.3384
1708345049.6502 0.724 -0.172 -0.3384 0.760 -0.3384
1708345049.6573 0.726 -0.173 -0.3399 0.762 -0.3399
1708345049.6650 0.729 -0.174 -0.3415 0.765 -0.3415
1708345049.6742 0.731 -0.175 -0.3415 0.767 -0.3415
1708345049.6813 0.733 -0.175 -0.3415 0.769 -0.3415
1708345049.6894 0.735 -0.176 -0.3446 0.771 -0.3446
1708345049.6975 0.737 -0.177 -0.3462 0.774 -0.3462
1708345049.7057 0.740 -0.178 -0.3462 0.776 -0.3462
1708345049.7134 0.742 -0.179 -0.3493 0.779 -0.3493
1708345049.7216 0.744 -0.180 -0.3524 0.781 -0.3524
1708345049.7298 0.747 -0.180 -0.3539 0.784 -0.3539
1708345049.7368 0.749 -0.181 -0.3555 0.786 -0.3555
1708345049.7460 0.751 -0.182 -0.3570 0.789 -0.3570
1708345049.7531 0.753 -0.183 -0.3586 0.791 -0.3586
1708345049.7608 0.755 -0.184 -0.3601 0.793 -0.3601
1708345049.7700 0.758 -0.185 -0.3632 0.796 -0.3632
1708345049.7771 0.760 -0.186 -0.3648 0.798 -0.3648
1708345049.7863 0.762 -0.186 -0.3679 0.801 -0.3679
1708345049.7933 0.764 -0.187 -0.3679 0.803 -0.3679
1708345049.8015 0.767 -0.188 -0.3679 0.805 -0.3679
1708345049.8092 0.769 -0.189 -0.3710 0.808 -0.3710
1708345049.8174 0.771 -0.190 -0.3756 0.810 -0.3756
1708345049.8255 0.773 -0.191 -0.3772 0.812 -0.3772
1708345049.8332 0.775 -0.191 -0.3741 0.815 -0.3741
1708345049.8420 0.778 -0.192 -0.3741 0.817 -0.3741
1708345049.8491 0.780 -0.193 -0.3741 0.820 -0.3741
1708345049.8568 0.783 -0.194 -0.3788 0.822 -0.3787
1708345049.8660 0.784 -0.195 -0.3819 0.824 -0.3819
1708345049.8729 0.786 -0.196 -0.3803 0.826 -0.3803
1708345049.8817 0.789 -0.197 -0.3772 0.829 -0.3772
1708345049.8894 0.791 -0.198 -0.3788 0.832 -0.3787
1708345049.8976 0.794 -0.199 -0.3834 0.834 -0.3834
1708345049.9053 0.795 -0.199 -0.3865 0.836 -0.3865
1708345049.9134 0.797 -0.200 -0.3803 0.838 -0.3803
1708345049.9213 0.800 -0.201 -0.3788 0.841 -0.3787
1708345049.9297 0.803 -0.202 -0.3819 0.844 -0.3819
1708345049.9374 0.804 -0.203 -0.3850 0.846 -0.3850
1708345049.9456 0.807 -0.204 -0.3819 0.848 -0.3819
1708345049.9533 0.809 -0.205 -0.3788 0.851 -0.3787
1708345049.9623 0.811 -0.206 -0.3803 0.853 -0.3803
1708345049.9694 0.813 -0.207 -0.3850 0.855 -0.3850
1708345049.9771 0.816 -0.207 -0.3896 0.858 -0.3896
1708345049.9869 0.818 -0.208 -0.3850 0.860 -0.3850
1708345049.9929 0.820 -0.209 -0.3788 0.863 -0.3787
1708345050.0017 0.822 -0.210 -0.3788 0.865 -0.3787
1708345050.0096 0.824 -0.211 -0.3850 0.867 -0.3850
1708345050.0178 0.827 -0.212 -0.3881 0.870 -0.3881
1708345050.0255 0.829 -0.213 -0.3834 0.872 -0.3834
1708345050.0337 0.831 -0.214 -0.3788 0.875 -0.3787
1708345050.0414 0.833 -0.215 -0.3788 0.877 -0.3787
1708345050.0499 0.836 -0.216 -0.3803 0.879 -0.3803
1708345050.0581 0.838 -0.217 -0.3834 0.882 -0.3834
1708345050.0652 0.840 -0.217 -0.3819 0.885 -0.3819
1708345050.0728 0.842 -0.218 -0.3788 0.886 -0.3787
