% Pose without folding and reset (log_20240212_154403.986/log_pose_abs.txt)
% 1 	Time (sec)
% 2,3 	Position x,y (m)
% 4 	heading (rad)
% 5 	Driven distance (m) - signed
% 6 	Turned angle (rad) - signed
1707749044.3076 0.000 0.000 0.0000 0.000 0.0000
1707749044.3154 0.000 0.000 0.0000 0.000 0.0000
1707749044.3233 0.000 0.000 0.0000 0.000 0.0000
1707749044.3311 0.000 0.000 0.0000 0.000 0.0000
1707749044.3382 0.000 0.000 0.0000 0.000 0.0000
1707749044.3466 0.000 0.000 0.0000 0.000 0.0000
1707749044.3545 0.000 0.000 0.0000 0.000 0.0000
1707749044.3634 0.000 0.000 0.0000 0.000 0.0000
1707749044.3704 0.000 0.000 0.0000 0.000 0.0000
1707749044.3783 0.000 0.000 0.0000 0.000 0.0000
1707749044.3871 0.000 0.000 0.0000 0.000 0.0000
1707749044.3949 0.000 0.000 0.0000 0.000 0.0000
1707749044.4032 0.000 0.000 0.0000 0.000 0.0000
1707749044.4111 0.000 0.000 0.0000 0.000 0.0000
1707749044.4186 0.000 0.000 0.0000 0.000 0.0000
1707749044.4265 0.000 0.000 0.0016 0.000 0.0016
1707749044.4351 0.000 0.000 0.0031 0.000 0.0031
1707749044.4425 0.001 0.000 0.0016 0.001 0.0016
1707749044.4510 0.002 0.000 0.0016 0.002 0.0016
1707749044.4585 0.003 0.000 0.0031 0.003 0.0031
1707749044.4662 0.003 0.000 0.0016 0.003 0.0016
1707749044.4752 0.003 0.000 0.0016 0.003 0.0016
1707749044.4827 0.004 0.000 0.0031 0.004 0.0031
1707749044.4906 0.005 0.000 0.0031 0.005 0.0031
1707749044.4982 0.006 0.000 0.0016 0.006 0.0016
1707749044.5066 0.007 0.000 0.0016 0.007 0.0016
1707749044.5170 0.008 0.000 0.0000 0.008 0.0000
1707749044.5231 0.009 0.000 0.0016 0.009 0.0016
1707749044.5313 0.011 0.000 0.0016 0.011 0.0016
1707749044.5420 0.012 0.000 -0.0016 0.012 -0.0016
1707749044.5486 0.013 0.000 -0.0047 0.013 -0.0047
1707749044.5573 0.015 0.000 -0.0031 0.015 -0.0031
1707749044.5683 0.017 0.000 -0.0000 0.017 0.0000
1707749044.5745 0.018 0.000 -0.0000 0.018 0.0000
1707749044.5824 0.020 0.000 -0.0016 0.020 -0.0016
1707749044.5915 0.022 0.000 -0.0016 0.022 -0.0016
1707749044.5947 0.023 -0.000 -0.0016 0.023 -0.0016
1707749044.6036 0.024 -0.000 -0.0000 0.024 0.0000
1707749044.6110 0.026 -0.000 0.0016 0.026 0.0016
1707749044.6182 0.027 0.000 -0.0000 0.027 0.0000
1707749044.6269 0.029 -0.000 -0.0031 0.029 -0.0031
1707749044.6345 0.030 -0.000 -0.0031 0.030 -0.0031
1707749044.6428 0.032 -0.000 0.0016 0.032 0.0016
1707749044.6505 0.033 -0.000 0.0047 0.033 0.0047
1707749044.6582 0.035 0.000 0.0047 0.035 0.0047
1707749044.6674 0.036 0.000 0.0031 0.036 0.0031
1707749044.6748 0.038 0.000 -0.0016 0.038 -0.0016
1707749044.6824 0.040 0.000 -0.0016 0.040 -0.0016
1707749044.6903 0.041 0.000 0.0016 0.041 0.0016
1707749044.7000 0.042 0.000 0.0047 0.042 0.0047
1707749044.7067 0.044 0.000 0.0031 0.044 0.0031
1707749044.7153 0.046 0.000 -0.0000 0.046 0.0000
1707749044.7225 0.047 0.000 0.0047 0.047 0.0047
1707749044.7305 0.048 0.000 0.0078 0.048 0.0078
1707749044.7389 0.050 0.000 0.0031 0.050 0.0031
1707749044.7468 0.051 0.000 -0.0016 0.051 -0.0016
1707749044.7553 0.053 0.000 0.0016 0.053 0.0016
1707749044.7634 0.055 0.000 0.0062 0.055 0.0062
1707749044.7707 0.056 0.000 0.0047 0.056 0.0047
1707749044.7789 0.058 0.000 -0.0016 0.058 -0.0016
1707749044.7866 0.059 0.000 -0.0062 0.059 -0.0062
1707749044.7951 0.061 0.000 -0.0016 0.061 -0.0016
1707749044.8023 0.063 0.000 0.0031 0.063 0.0031
1707749044.8112 0.064 0.000 0.0031 0.064 0.0031
1707749044.8188 0.066 0.000 -0.0031 0.066 -0.0031
1707749044.8271 0.067 0.000 -0.0078 0.067 -0.0078
1707749044.8349 0.069 0.000 -0.0047 0.069 -0.0047
1707749044.8432 0.071 0.000 0.0016 0.071 0.0016
1707749044.8504 0.072 0.000 0.0016 0.072 0.0016
1707749044.8582 0.074 0.000 -0.0047 0.074 -0.0047
1707749044.8670 0.076 0.000 -0.0078 0.076 -0.0078
1707749044.8747 0.078 -0.000 -0.0047 0.078 -0.0047
1707749044.8830 0.079 -0.000 0.0016 0.079 0.0016
1707749044.8902 0.081 0.000 0.0031 0.081 0.0031
1707749044.8985 0.082 0.000 -0.0031 0.082 -0.0031
1707749044.9063 0.084 -0.000 -0.0062 0.084 -0.0062
1707749044.9152 0.085 -0.000 -0.0016 0.085 -0.0016
1707749044.9224 0.087 -0.000 0.0031 0.087 0.0031
1707749044.9302 0.089 -0.000 0.0047 0.089 0.0047
1707749044.9385 0.091 -0.000 -0.0000 0.091 -0.0000
1707749044.9472 0.092 -0.000 -0.0062 0.092 -0.0062
1707749044.9547 0.093 -0.000 -0.0047 0.093 -0.0047
1707749044.9637 0.095 -0.000 -0.0000 0.095 -0.0000
1707749044.9702 0.097 -0.000 0.0031 0.097 0.0031
1707749044.9791 0.098 -0.000 0.0031 0.098 0.0031
1707749044.9862 0.100 -0.000 -0.0031 0.100 -0.0031
1707749044.9945 0.101 -0.000 -0.0047 0.101 -0.0047
1707749045.0028 0.103 -0.000 -0.0000 0.103 -0.0000
1707749045.0110 0.104 -0.000 0.0047 0.104 0.0047
1707749045.0190 0.106 -0.000 0.0047 0.106 0.0047
1707749045.0272 0.108 -0.000 0.0016 0.108 0.0016
1707749045.0424 0.111 -0.000 -0.0000 0.111 -0.0000
1707749045.0511 0.112 -0.000 0.0031 0.112 0.0031
1707749045.0584 0.114 0.000 0.0047 0.114 0.0047
1707749045.0677 0.115 0.000 0.0016 0.115 0.0016
1707749045.0745 0.117 0.000 -0.0047 0.117 -0.0047
1707749045.0832 0.119 -0.000 -0.0062 0.119 -0.0062
1707749045.0909 0.121 -0.000 -0.0016 0.121 -0.0016
1707749045.0988 0.122 -0.000 0.0016 0.122 0.0016
1707749045.1081 0.123 -0.000 0.0016 0.123 0.0016
1707749045.1146 0.125 -0.000 -0.0016 0.125 -0.0016
1707749045.1223 0.127 -0.000 -0.0031 0.127 -0.0031
1707749045.1391 0.129 -0.000 -0.0031 0.129 -0.0031
1707749045.1425 0.129 -0.000 -0.0031 0.129 -0.0031
1707749045.1484 0.130 -0.000 -0.0031 0.130 -0.0031
1707749045.1546 0.131 -0.000 -0.0031 0.131 -0.0031
1707749045.1636 0.133 -0.000 -0.0016 0.133 -0.0016
1707749045.1705 0.135 -0.000 -0.0000 0.135 -0.0000
1707749045.1807 0.137 -0.000 -0.0000 0.137 -0.0000
1707749045.1865 0.137 -0.000 -0.0000 0.137 -0.0000
1707749045.1942 0.138 -0.000 -0.0000 0.138 -0.0000
1707749045.2034 0.141 -0.000 0.0016 0.141 0.0016
1707749045.2111 0.143 -0.000 -0.0000 0.143 -0.0000
1707749045.2190 0.144 -0.000 -0.0016 0.144 -0.0016
1707749045.2264 0.145 -0.000 -0.0016 0.145 -0.0016
1707749045.2347 0.146 -0.000 -0.0000 0.146 -0.0000
1707749045.2427 0.149 -0.000 -0.0000 0.149 -0.0000
1707749045.2510 0.150 -0.000 -0.0016 0.150 -0.0016
1707749045.2583 0.151 -0.000 -0.0016 0.151 -0.0016
1707749045.2668 0.153 -0.000 0.0016 0.153 0.0016
1707749045.2742 0.155 -0.000 0.0031 0.155 0.0031
1707749045.2825 0.157 -0.000 -0.0000 0.157 -0.0000
1707749045.2905 0.158 -0.000 -0.0047 0.158 -0.0047
1707749045.2988 0.159 -0.000 -0.0016 0.159 -0.0016
1707749045.3071 0.160 -0.000 0.0047 0.160 0.0047
1707749045.3143 0.163 -0.000 0.0047 0.163 0.0047
1707749045.3226 0.165 -0.000 0.0016 0.165 0.0016
1707749045.3309 0.166 -0.000 -0.0016 0.166 -0.0016
1707749045.3388 0.168 -0.000 0.0016 0.168 0.0016
1707749045.3471 0.169 -0.000 0.0062 0.169 0.0062
1707749045.3622 0.171 -0.000 0.0062 0.171 0.0062
1707749045.3664 0.173 0.000 -0.0000 0.173 -0.0000
1707749045.3705 0.175 -0.000 -0.0062 0.175 -0.0062
1707749045.3864 0.176 -0.000 0.0016 0.176 0.0016
1707749045.3950 0.176 -0.000 0.0093 0.176 0.0093
1707749045.4058 0.176 0.000 0.0171 0.176 0.0171
1707749045.4105 0.178 0.000 0.0171 0.178 0.0171
1707749045.4186 0.181 0.000 0.0140 0.181 0.0140
1707749045.4270 0.182 0.000 0.0140 0.182 0.0140
1707749045.4350 0.183 0.000 0.0124 0.183 0.0124
1707749045.4423 0.184 0.000 0.0124 0.184 0.0124
1707749045.4506 0.186 0.000 0.0109 0.186 0.0109
1707749045.4585 0.188 0.000 0.0109 0.188 0.0109
1707749045.4665 0.189 0.000 0.0124 0.189 0.0124
1707749045.4750 0.190 0.000 0.0155 0.190 0.0155
1707749045.4828 0.191 0.000 0.0140 0.191 0.0140
1707749045.4907 0.193 0.000 0.0124 0.193 0.0124
1707749045.4988 0.195 0.000 0.0109 0.195 0.0109
1707749045.5067 0.197 0.000 0.0124 0.197 0.0124
1707749045.5146 0.197 0.000 0.0140 0.197 0.0140
1707749045.5228 0.198 0.000 0.0124 0.198 0.0124
1707749045.5307 0.201 0.000 0.0093 0.201 0.0093
1707749045.5389 0.203 0.000 0.0093 0.203 0.0093
1707749045.5470 0.204 0.000 0.0109 0.204 0.0109
1707749045.5548 0.205 0.000 0.0078 0.205 0.0078
1707749045.5637 0.207 0.000 0.0062 0.207 0.0062
1707749045.5705 0.209 0.000 0.0047 0.209 0.0047
1707749045.5790 0.211 0.000 0.0047 0.211 0.0047
1707749045.5871 0.212 0.000 0.0062 0.212 0.0062
1707749045.5943 0.212 0.000 0.0062 0.212 0.0062
1707749045.6032 0.214 0.000 0.0031 0.214 0.0031
1707749045.6104 0.217 0.000 0.0016 0.217 0.0016
1707749045.6183 0.219 0.000 0.0031 0.219 0.0031
1707749045.6273 0.220 0.000 0.0031 0.220 0.0031
1707749045.6343 0.221 0.000 0.0031 0.221 0.0031
1707749045.6425 0.222 0.000 0.0016 0.222 0.0016
1707749045.6511 0.224 0.000 -0.0000 0.224 -0.0000
1707749045.6582 0.226 0.000 -0.0000 0.226 -0.0000
1707749045.6669 0.228 0.000 0.0016 0.228 0.0016
1707749045.6745 0.229 0.000 0.0016 0.229 0.0016
1707749045.6828 0.231 0.000 -0.0000 0.231 -0.0000
1707749045.6910 0.233 0.000 -0.0016 0.233 -0.0016
1707749045.6988 0.235 0.000 -0.0016 0.235 -0.0016
1707749045.7071 0.236 0.000 -0.0000 0.236 -0.0000
1707749045.7143 0.237 0.000 0.0016 0.237 0.0016
1707749045.7230 0.238 0.000 0.0016 0.238 0.0016
1707749045.7303 0.240 0.000 -0.0000 0.240 -0.0000
1707749045.7386 0.243 0.000 -0.0000 0.243 -0.0000
1707749045.7464 0.243 0.000 -0.0016 0.243 -0.0016
1707749045.7552 0.244 0.000 -0.0000 0.244 -0.0000
1707749045.7629 0.246 0.000 -0.0000 0.246 -0.0000
1707749045.7707 0.249 0.000 -0.0000 0.249 -0.0000
1707749045.7790 0.250 0.000 -0.0000 0.250 -0.0000
1707749045.7862 0.251 0.000 -0.0000 0.251 -0.0000
1707749045.7944 0.252 0.000 -0.0000 0.252 -0.0000
1707749045.8045 0.254 0.000 0.0016 0.254 0.0016
1707749045.8105 0.257 0.000 -0.0000 0.257 -0.0000
1707749045.8190 0.258 0.000 -0.0016 0.258 -0.0016
1707749045.8263 0.259 0.000 -0.0031 0.259 -0.0031
1707749045.8342 0.260 0.000 -0.0016 0.260 -0.0016
1707749045.8431 0.263 0.000 -0.0000 0.263 -0.0000
1707749045.8503 0.265 0.000 -0.0000 0.265 -0.0000
1707749045.8584 0.266 0.000 -0.0031 0.266 -0.0031
1707749045.8668 0.267 0.000 -0.0000 0.267 -0.0000
1707749045.8751 0.268 0.000 0.0016 0.268 0.0016
1707749045.8825 0.271 0.000 0.0016 0.271 0.0016
1707749045.8903 0.273 0.000 -0.0000 0.273 -0.0000
1707749045.8984 0.274 0.000 -0.0031 0.274 -0.0031
1707749045.9068 0.275 0.000 -0.0031 0.275 -0.0031
1707749045.9143 0.276 0.000 -0.0000 0.276 -0.0000
1707749045.9225 0.279 0.000 0.0016 0.279 0.0016
1707749045.9305 0.280 0.000 -0.0016 0.280 -0.0016
1707749045.9383 0.282 0.000 -0.0031 0.282 -0.0031
1707749045.9464 0.283 0.000 -0.0000 0.283 -0.0000
1707749045.9549 0.284 0.000 -0.0000 0.284 -0.0000
1707749045.9656 0.286 0.000 -0.0016 0.286 -0.0016
1707749045.9706 0.289 0.000 -0.0031 0.289 -0.0031
1707749045.9790 0.290 0.000 -0.0031 0.290 -0.0031
1707749045.9869 0.291 0.000 -0.0016 0.291 -0.0016
1707749045.9950 0.292 0.000 -0.0000 0.292 -0.0000
1707749046.0022 0.294 0.000 0.0016 0.294 0.0016
1707749046.0111 0.296 0.000 -0.0016 0.296 -0.0016
1707749046.0190 0.297 0.000 -0.0031 0.297 -0.0031
1707749046.0270 0.298 0.000 -0.0016 0.298 -0.0016
1707749046.0346 0.300 0.000 -0.0016 0.300 -0.0016
1707749046.0429 0.302 0.000 -0.0000 0.302 -0.0000
1707749046.0510 0.304 0.000 0.0016 0.304 0.0016
1707749046.0583 0.305 0.000 -0.0000 0.305 -0.0000
1707749046.0668 0.306 0.000 0.0016 0.306 0.0016
1707749046.0751 0.308 0.000 0.0016 0.308 0.0016
1707749046.0827 0.310 0.000 0.0031 0.310 0.0031
1707749046.0910 0.312 0.000 -0.0000 0.312 -0.0000
1707749046.0983 0.313 0.000 -0.0016 0.313 -0.0016
1707749046.1068 0.314 0.000 -0.0000 0.314 -0.0000
1707749046.1148 0.316 0.000 0.0031 0.316 0.0031
1707749046.1230 0.318 0.000 0.0016 0.318 0.0016
1707749046.1308 0.319 0.000 -0.0000 0.319 -0.0000
1707749046.1390 0.321 0.000 -0.0031 0.321 -0.0031
1707749046.1500 0.322 0.000 -0.0016 0.322 -0.0016
1707749046.1632 0.326 0.000 0.0078 0.326 0.0078
1707749046.1705 0.328 0.000 0.0062 0.328 0.0062
1707749046.1788 0.329 0.000 0.0016 0.329 0.0016
1707749046.1869 0.330 0.000 -0.0000 0.330 -0.0000
1707749046.1999 0.332 0.000 0.0031 0.332 0.0031
1707749046.2029 0.333 0.000 0.0078 0.333 0.0078
1707749046.2104 0.335 0.000 0.0093 0.335 0.0093
1707749046.2190 0.336 0.000 0.0062 0.336 0.0062
1707749046.2263 0.336 0.000 0.0031 0.336 0.0031
1707749046.2351 0.339 0.000 -0.0016 0.339 -0.0016
1707749046.2428 0.341 0.000 -0.0016 0.341 -0.0016
1707749046.2512 0.342 0.000 0.0016 0.342 0.0016
1707749046.2588 0.343 0.000 0.0016 0.343 0.0016
1707749046.2663 0.344 0.000 -0.0000 0.344 -0.0000
1707749046.2800 0.346 0.000 -0.0016 0.346 -0.0016
1707749046.2828 0.348 0.000 -0.0016 0.348 -0.0016
1707749046.2912 0.350 0.000 -0.0000 0.350 -0.0000
1707749046.2991 0.349 0.000 -0.0016 0.349 -0.0016
1707749046.3072 0.350 0.000 -0.0031 0.350 -0.0031
1707749046.3152 0.352 0.000 -0.0062 0.352 -0.0062
1707749046.3231 0.355 0.000 -0.0062 0.355 -0.0062
1707749046.3304 0.356 0.000 -0.0047 0.356 -0.0047
1707749046.3388 0.356 0.000 -0.0047 0.356 -0.0047
1707749046.3468 0.357 0.000 -0.0047 0.357 -0.0047
1707749046.3562 0.359 0.000 -0.0062 0.359 -0.0062
1707749046.3633 0.362 0.000 -0.0062 0.362 -0.0062
1707749046.3709 0.363 0.000 -0.0047 0.363 -0.0047
1707749046.3783 0.363 0.000 -0.0047 0.363 -0.0047
1707749046.3865 0.364 0.000 -0.0031 0.364 -0.0031
1707749046.3945 0.367 0.000 -0.0031 0.367 -0.0031
1707749046.4029 0.369 0.000 -0.0031 0.369 -0.0031
1707749046.4103 0.370 0.000 -0.0031 0.370 -0.0031
1707749046.4190 0.371 0.000 -0.0031 0.371 -0.0031
1707749046.4264 0.372 0.000 -0.0016 0.372 -0.0016
1707749046.4349 0.374 0.000 -0.0016 0.374 -0.0016
1707749046.4426 0.376 0.000 -0.0031 0.376 -0.0031
1707749046.4510 0.378 0.000 -0.0047 0.378 -0.0047
1707749046.4585 0.379 0.000 -0.0031 0.379 -0.0031
1707749046.4669 0.380 0.000 -0.0000 0.380 -0.0000
1707749046.4746 0.382 0.000 -0.0000 0.382 -0.0000
1707749046.4830 0.384 0.000 -0.0000 0.384 -0.0000
1707749046.4910 0.386 0.000 -0.0016 0.386 -0.0016
1707749046.4986 0.387 0.000 -0.0031 0.387 -0.0031
1707749046.5066 0.388 0.000 -0.0016 0.388 -0.0016
1707749046.5143 0.390 0.000 0.0016 0.390 0.0016
1707749046.5228 0.392 0.000 0.0016 0.392 0.0016
1707749046.5312 0.394 0.000 -0.0000 0.394 -0.0000
1707749046.5382 0.395 0.000 0.0016 0.395 0.0016
1707749046.5463 0.396 0.000 0.0016 0.396 0.0016
1707749046.5549 0.398 0.000 0.0016 0.398 0.0016
1707749046.5637 0.400 0.000 0.0016 0.400 0.0016
1707749046.5712 0.402 0.000 0.0016 0.402 0.0016
1707749046.5792 0.403 0.000 -0.0000 0.403 -0.0000
1707749046.5863 0.404 0.000 -0.0000 0.404 -0.0000
1707749046.5950 0.406 0.000 -0.0000 0.406 -0.0000
1707749046.6024 0.408 0.000 -0.0000 0.408 -0.0000
1707749046.6104 0.410 0.000 -0.0000 0.410 -0.0000
1707749046.6185 0.410 0.000 -0.0000 0.410 -0.0000
1707749046.6270 0.412 0.000 0.0016 0.412 0.0016
1707749046.6350 0.414 0.000 0.0016 0.414 0.0016
1707749046.6423 0.416 0.000 -0.0000 0.416 -0.0000
1707749046.6510 0.417 0.000 -0.0016 0.417 -0.0016
1707749046.6590 0.418 0.000 -0.0016 0.418 -0.0016
1707749046.6670 0.420 0.000 -0.0000 0.420 -0.0000
1707749046.6745 0.422 0.000 0.0031 0.422 0.0031
1707749046.6827 0.424 0.000 0.0016 0.424 0.0016
1707749046.6910 0.426 0.000 -0.0016 0.426 -0.0016
1707749046.6984 0.426 0.000 -0.0016 0.426 -0.0016
1707749046.7065 0.428 0.000 0.0016 0.428 0.0016
1707749046.7146 0.430 0.000 0.0031 0.430 0.0031
1707749046.7231 0.432 0.000 -0.0000 0.432 -0.0000
1707749046.7302 0.433 0.000 -0.0031 0.433 -0.0031
1707749046.7388 0.435 0.000 -0.0016 0.435 -0.0016
1707749046.7462 0.436 0.000 0.0031 0.436 0.0031
1707749046.7542 0.438 0.000 0.0047 0.438 0.0047
1707749046.7634 0.440 0.000 -0.0000 0.440 -0.0000
1707749046.7709 0.441 0.000 -0.0062 0.441 -0.0062
1707749046.7789 0.443 0.000 -0.0047 0.443 -0.0047
1707749046.7863 0.444 0.000 0.0031 0.444 0.0031
1707749046.7948 0.446 0.000 0.0062 0.446 0.0062
1707749046.8029 0.447 0.000 -0.0000 0.447 -0.0000
1707749046.8103 0.449 0.000 -0.0078 0.449 -0.0078
1707749046.8184 0.451 0.000 -0.0047 0.451 -0.0047
1707749046.8265 0.452 0.000 0.0016 0.452 0.0016
1707749046.8350 0.454 0.000 0.0031 0.454 0.0031
1707749046.8424 0.456 0.000 -0.0000 0.456 -0.0000
1707749046.8506 0.457 0.000 -0.0062 0.457 -0.0062
1707749046.8617 0.458 0.000 -0.0062 0.458 -0.0062
1707749046.8668 0.460 0.000 0.0016 0.460 0.0016
1707749046.8749 0.461 0.000 0.0078 0.462 0.0078
1707749046.8824 0.463 0.000 0.0031 0.463 0.0031
1707749046.8911 0.465 0.000 -0.0047 0.465 -0.0047
1707749046.8992 0.466 0.000 -0.0047 0.466 -0.0047
1707749046.9067 0.468 0.000 0.0031 0.468 0.0031
1707749046.9148 0.470 0.000 0.0031 0.470 0.0031
1707749046.9228 0.471 0.000 -0.0016 0.471 -0.0016
1707749046.9312 0.473 0.000 -0.0031 0.473 -0.0031
1707749046.9385 0.474 0.000 -0.0031 0.474 -0.0031
1707749046.9466 0.476 0.000 -0.0000 0.476 -0.0000
1707749046.9550 0.478 0.000 -0.0016 0.478 -0.0016
1707749046.9638 0.479 0.000 -0.0047 0.479 -0.0047
1707749046.9708 0.481 0.000 -0.0031 0.481 -0.0031
1707749046.9793 0.482 0.000 -0.0031 0.482 -0.0031
1707749046.9866 0.484 0.000 -0.0047 0.484 -0.0047
1707749046.9947 0.486 0.000 -0.0062 0.486 -0.0062
1707749047.0031 0.487 0.000 -0.0031 0.487 -0.0031
1707749047.0105 0.489 0.000 0.0016 0.489 0.0016
1707749047.0182 0.490 0.000 0.0016 0.490 0.0016
1707749047.0267 0.492 0.000 -0.0031 0.492 -0.0031
1707749047.0351 0.494 0.000 -0.0078 0.494 -0.0078
1707749047.0431 0.495 0.000 -0.0078 0.495 -0.0078
1707749047.0511 0.497 0.000 -0.0016 0.497 -0.0016
1707749047.0585 0.498 0.000 0.0031 0.498 0.0031
1707749047.0668 0.500 0.000 -0.0000 0.500 -0.0000
1707749047.0752 0.502 0.000 -0.0062 0.502 -0.0062
1707749047.0830 0.503 0.000 -0.0047 0.503 -0.0047
1707749047.0904 0.505 0.000 -0.0000 0.505 -0.0000
1707749047.0991 0.507 0.000 -0.0000 0.507 -0.0000
1707749047.1066 0.508 0.000 -0.0031 0.508 -0.0031
1707749047.1142 0.509 0.000 -0.0078 0.509 -0.0078
1707749047.1226 0.511 0.000 -0.0047 0.511 -0.0047
1707749047.1310 0.513 0.000 0.0031 0.513 0.0031
1707749047.1391 0.514 0.000 0.0031 0.514 0.0031
1707749047.1488 0.515 0.000 -0.0016 0.515 -0.0016
1707749047.1552 0.518 0.000 -0.0062 0.518 -0.0062
1707749047.1638 0.519 0.000 -0.0047 0.519 -0.0047
1707749047.1709 0.520 0.000 -0.0016 0.520 -0.0016
1707749047.1784 0.522 0.000 -0.0000 0.522 -0.0000
1707749047.1867 0.523 0.000 -0.0031 0.523 -0.0031
1707749047.1952 0.525 0.000 -0.0062 0.525 -0.0062
1707749047.2028 0.527 0.000 -0.0031 0.527 -0.0031
1707749047.2110 0.528 0.000 -0.0016 0.528 -0.0016
1707749047.2184 0.529 0.000 -0.0016 0.529 -0.0016
1707749047.2263 0.531 0.000 -0.0031 0.531 -0.0031
1707749047.2348 0.533 0.000 -0.0031 0.533 -0.0031
1707749047.2430 0.535 0.000 -0.0000 0.535 -0.0000
1707749047.2511 0.536 0.000 0.0016 0.536 0.0016
1707749047.2591 0.537 0.000 -0.0000 0.537 -0.0000
1707749047.2672 0.539 0.000 -0.0031 0.539 -0.0031
1707749047.2746 0.541 0.000 0.0016 0.541 0.0016
1707749047.2828 0.543 0.000 0.0031 0.543 0.0031
1707749047.2912 0.544 0.000 0.0016 0.544 0.0016
1707749047.2984 0.545 0.000 -0.0000 0.545 -0.0000
1707749047.3065 0.547 0.000 -0.0016 0.548 -0.0016
1707749047.3146 0.549 0.000 -0.0000 0.549 -0.0000
1707749047.3231 0.550 0.000 0.0031 0.550 0.0031
1707749047.3311 0.552 0.000 0.0031 0.552 0.0031
1707749047.3384 0.554 0.000 -0.0000 0.554 -0.0000
1707749047.3470 0.556 0.000 -0.0000 0.556 -0.0000
1707749047.3563 0.557 0.000 -0.0000 0.557 -0.0000
1707749047.3636 0.559 0.000 0.0031 0.559 0.0031
1707749047.3712 0.560 0.000 0.0047 0.560 0.0047
1707749047.3783 0.562 0.000 0.0047 0.562 0.0047
1707749047.3869 0.564 0.000 0.0016 0.564 0.0016
1707749047.4034 0.565 0.000 -0.0000 0.565 -0.0000
1707749047.4062 0.566 0.000 -0.0000 0.566 -0.0000
1707749047.4104 0.567 0.000 0.0031 0.567 0.0031
1707749047.4190 0.569 0.000 0.0031 0.569 0.0031
1707749047.4263 0.570 0.000 0.0016 0.570 0.0016
1707749047.4348 0.572 0.000 -0.0016 0.572 -0.0016
1707749047.4433 0.573 0.000 -0.0031 0.573 -0.0031
1707749047.4512 0.575 0.000 0.0016 0.575 0.0016
1707749047.4586 0.577 0.000 0.0047 0.577 0.0047
1707749047.4666 0.578 0.000 0.0047 0.578 0.0047
1707749047.4745 0.579 0.000 0.0016 0.579 0.0016
1707749047.4831 0.581 0.000 -0.0031 0.581 -0.0031
1707749047.4905 0.582 0.000 -0.0047 0.582 -0.0047
1707749047.5001 0.583 0.000 -0.0016 0.583 -0.0016
1707749047.5066 0.584 0.000 0.0016 0.584 0.0016
1707749047.5152 0.586 0.000 0.0031 0.586 0.0031
1707749047.5231 0.588 0.000 -0.0000 0.588 -0.0000
1707749047.5304 0.590 0.000 -0.0031 0.590 -0.0031
