% Pose without folding and reset (log_20240224_143627.058/log_pose_abs.txt)
% 1 	Time (sec)
% 2,3 	Position x,y (m)
% 4 	heading (rad)
% 5 	Driven distance (m) - signed
% 6 	Turned angle (rad) - signed
1708781787.9711 0.000 0.000 0.0000 0.000 0.0000
1708781787.9787 0.000 0.000 0.0000 0.000 0.0000
1708781787.9854 0.000 0.000 0.0000 0.000 0.0000
1708781787.9934 0.000 0.000 0.0000 0.000 0.0000
1708781788.0018 0.000 0.000 0.0000 0.000 0.0000
1708781788.0095 0.000 0.000 0.0000 0.000 0.0000
1708781788.0182 0.000 0.000 0.0000 0.000 0.0000
1708781788.0257 0.000 0.000 0.0000 0.000 0.0000
1708781788.0342 0.000 0.000 0.0000 0.000 0.0000
1708781788.0421 0.000 0.000 0.0000 0.000 0.0000
1708781788.0497 0.000 0.000 0.0000 0.000 0.0000
1708781788.0583 0.000 0.000 0.0000 0.000 0.0000
1708781788.0721 0.000 0.000 0.0000 0.000 0.0000
1708781788.0744 0.000 0.000 0.0000 0.000 0.0000
1708781788.0814 0.000 0.000 0.0000 0.000 0.0000
1708781788.0899 0.000 0.000 0.0000 0.000 0.0000
1708781788.0983 0.000 0.000 0.0000 0.000 0.0000
1708781788.1060 0.000 0.000 0.0000 0.000 0.0000
1708781788.1137 0.000 0.000 0.0000 0.000 0.0000
1708781788.1220 0.000 0.000 0.0031 0.000 0.0031
1708781788.1294 0.003 0.000 0.0047 0.003 0.0047
1708781788.1382 0.007 0.000 0.0047 0.007 0.0047
1708781788.1458 0.009 0.000 -0.0000 0.009 -0.0000
1708781788.1535 0.011 0.000 -0.0016 0.011 -0.0016
1708781788.1619 0.015 0.000 0.0016 0.015 0.0016
1708781788.1704 0.019 0.000 0.0016 0.019 0.0016
1708781788.1778 0.024 0.000 -0.0000 0.024 -0.0000
1708781788.1856 0.028 0.000 -0.0016 0.028 -0.0016
1708781788.1944 0.033 0.000 -0.0016 0.033 -0.0016
1708781788.2022 0.039 0.000 -0.0016 0.039 -0.0016
1708781788.2101 0.046 -0.000 -0.0078 0.046 -0.0078
1708781788.2175 0.052 -0.000 -0.0109 0.052 -0.0109
1708781788.2259 0.058 -0.000 -0.0124 0.058 -0.0124
1708781788.2396 0.064 -0.000 -0.0140 0.064 -0.0140
1708781788.2419 0.070 -0.000 -0.0171 0.070 -0.0171
1708781788.2499 0.076 -0.000 -0.0202 0.076 -0.0202
1708781788.2581 0.080 -0.001 -0.0186 0.080 -0.0186
1708781788.2658 0.085 -0.001 -0.0186 0.085 -0.0186
1708781788.2737 0.091 -0.001 -0.0202 0.091 -0.0202
1708781788.2822 0.098 -0.001 -0.0233 0.098 -0.0233
1708781788.2894 0.104 -0.001 -0.0295 0.104 -0.0295
1708781788.2984 0.108 -0.001 -0.0310 0.108 -0.0310
1708781788.3063 0.114 -0.001 -0.0326 0.114 -0.0326
1708781788.3135 0.119 -0.002 -0.0341 0.119 -0.0341
1708781788.3219 0.125 -0.002 -0.0326 0.125 -0.0326
1708781788.3305 0.131 -0.002 -0.0341 0.131 -0.0341
1708781788.3377 0.137 -0.002 -0.0341 0.137 -0.0341
1708781788.3470 0.144 -0.002 -0.0310 0.144 -0.0310
1708781788.3542 0.151 -0.003 -0.0310 0.151 -0.0310
1708781788.3623 0.158 -0.003 -0.0310 0.158 -0.0310
1708781788.3694 0.164 -0.003 -0.0310 0.164 -0.0310
1708781788.3796 0.170 -0.003 -0.0279 0.170 -0.0279
1708781788.3861 0.177 -0.003 -0.0217 0.177 -0.0217
1708781788.3940 0.184 -0.003 -0.0186 0.184 -0.0186
1708781788.4020 0.191 -0.004 -0.0202 0.191 -0.0202
1708781788.4100 0.197 -0.004 -0.0233 0.197 -0.0233
1708781788.4178 0.203 -0.004 -0.0233 0.203 -0.0233
1708781788.4262 0.210 -0.004 -0.0248 0.210 -0.0248
1708781788.4336 0.216 -0.004 -0.0248 0.217 -0.0248
1708781788.4417 0.223 -0.004 -0.0248 0.223 -0.0248
1708781788.4502 0.230 -0.005 -0.0248 0.230 -0.0248
1708781788.4576 0.236 -0.005 -0.0264 0.236 -0.0264
1708781788.4656 0.242 -0.005 -0.0264 0.242 -0.0264
1708781788.4736 0.249 -0.005 -0.0248 0.249 -0.0248
1708781788.4819 0.255 -0.005 -0.0233 0.255 -0.0233
1708781788.4904 0.262 -0.005 -0.0202 0.262 -0.0202
1708781788.4984 0.268 -0.005 -0.0217 0.268 -0.0217
1708781788.5061 0.274 -0.006 -0.0217 0.274 -0.0217
1708781788.5141 0.280 -0.006 -0.0186 0.280 -0.0186
1708781788.5221 0.287 -0.006 -0.0155 0.287 -0.0155
1708781788.5294 0.293 -0.006 -0.0155 0.293 -0.0155
1708781788.5380 0.300 -0.006 -0.0155 0.300 -0.0155
1708781788.5466 0.305 -0.006 -0.0124 0.306 -0.0124
1708781788.5543 0.312 -0.006 -0.0093 0.312 -0.0093
1708781788.5615 0.319 -0.006 -0.0093 0.319 -0.0093
1708781788.5696 0.325 -0.006 -0.0093 0.326 -0.0093
1708781788.5788 0.331 -0.006 -0.0093 0.331 -0.0093
1708781788.5862 0.336 -0.006 -0.0109 0.336 -0.0109
1708781788.5943 0.343 -0.006 -0.0062 0.343 -0.0062
1708781788.6019 0.350 -0.006 -0.0031 0.350 -0.0031
1708781788.6100 0.357 -0.006 0.0016 0.357 0.0016
1708781788.6183 0.362 -0.006 0.0031 0.362 0.0031
1708781788.6261 0.368 -0.006 0.0031 0.369 0.0031
1708781788.6344 0.375 -0.006 0.0031 0.375 0.0031
1708781788.6423 0.382 -0.006 0.0078 0.382 0.0078
1708781788.6499 0.388 -0.006 0.0109 0.388 0.0109
1708781788.6581 0.394 -0.006 0.0124 0.394 0.0124
1708781788.6659 0.401 -0.006 0.0109 0.401 0.0109
1708781788.6736 0.407 -0.006 0.0140 0.408 0.0140
1708781788.6815 0.414 -0.006 0.0202 0.414 0.0202
1708781788.6899 0.419 -0.006 0.0248 0.419 0.0248
1708781788.6977 0.426 -0.006 0.0248 0.426 0.0248
1708781788.7056 0.433 -0.006 0.0233 0.433 0.0233
1708781788.7136 0.439 -0.005 0.0279 0.439 0.0279
1708781788.7224 0.445 -0.005 0.0326 0.445 0.0326
1708781788.7301 0.451 -0.005 0.0341 0.452 0.0341
1708781788.7381 0.459 -0.005 0.0341 0.459 0.0341
1708781788.7459 0.465 -0.005 0.0373 0.465 0.0373
1708781788.7539 0.471 -0.004 0.0419 0.471 0.0419
1708781788.7624 0.478 -0.004 0.0512 0.478 0.0512
1708781788.7701 0.484 -0.004 0.0512 0.485 0.0512
1708781788.7777 0.491 -0.003 0.0497 0.491 0.0497
1708781788.7858 0.497 -0.003 0.0512 0.497 0.0512
1708781788.7935 0.503 -0.003 0.0590 0.503 0.0590
1708781788.8015 0.509 -0.002 0.0667 0.509 0.0667
1708781788.8095 0.516 -0.002 0.0667 0.516 0.0667
1708781788.8183 0.522 -0.001 0.0667 0.523 0.0667
1708781788.8262 0.528 -0.001 0.0714 0.528 0.0714
1708781788.8343 0.534 -0.001 0.0761 0.535 0.0761
1708781788.8418 0.542 0.000 0.0792 0.542 0.0792
1708781788.8499 0.548 0.001 0.0807 0.548 0.0807
1708781788.8580 0.554 0.001 0.0838 0.554 0.0838
1708781788.8659 0.560 0.002 0.0916 0.560 0.0916
1708781788.8740 0.567 0.002 0.0947 0.567 0.0947
1708781788.8824 0.573 0.003 0.0931 0.574 0.0931
1708781788.8894 0.580 0.003 0.0947 0.580 0.0947
1708781788.8978 0.586 0.004 0.0993 0.586 0.0993
1708781788.9062 0.591 0.005 0.1040 0.592 0.1040
1708781788.9139 0.598 0.005 0.1071 0.598 0.1071
1708781788.9220 0.605 0.006 0.1071 0.605 0.1071
1708781788.9297 0.611 0.007 0.1087 0.612 0.1087
1708781788.9383 0.617 0.007 0.1102 0.618 0.1102
1708781788.9455 0.623 0.008 0.1102 0.624 0.1102
1708781788.9554 0.630 0.009 0.1118 0.630 0.1118
1708781788.9622 0.636 0.010 0.1164 0.637 0.1164
1708781788.9696 0.643 0.010 0.1180 0.644 0.1180
1708781788.9789 0.649 0.011 0.1195 0.650 0.1195
1708781788.9856 0.655 0.012 0.1211 0.656 0.1211
1708781788.9936 0.661 0.012 0.1195 0.662 0.1195
1708781789.0017 0.667 0.013 0.1195 0.668 0.1195
1708781789.0094 0.673 0.014 0.1211 0.674 0.1211
1708781789.0177 0.680 0.015 0.1242 0.681 0.1242
1708781789.0259 0.687 0.016 0.1242 0.688 0.1242
1708781789.0344 0.693 0.016 0.1226 0.694 0.1226
1708781789.0424 0.699 0.017 0.1226 0.701 0.1226
1708781789.0503 0.706 0.018 0.1242 0.707 0.1242
1708781789.0578 0.713 0.019 0.1257 0.714 0.1257
1708781789.0658 0.719 0.020 0.1257 0.720 0.1257
1708781789.0739 0.725 0.020 0.1257 0.726 0.1257
1708781789.0815 0.731 0.021 0.1242 0.732 0.1242
1708781789.0898 0.738 0.022 0.1257 0.739 0.1257
1708781789.0975 0.744 0.023 0.1257 0.746 0.1257
1708781789.1064 0.750 0.024 0.1257 0.752 0.1257
1708781789.1136 0.756 0.024 0.1242 0.758 0.1242
1708781789.1217 0.763 0.025 0.1226 0.764 0.1226
1708781789.1302 0.769 0.026 0.1242 0.771 0.1242
1708781789.1383 0.775 0.027 0.1242 0.777 0.1242
1708781789.1462 0.782 0.028 0.1226 0.784 0.1226
1708781789.1540 0.789 0.028 0.1180 0.791 0.1180
1708781789.1617 0.795 0.029 0.1180 0.797 0.1180
1708781789.1697 0.801 0.030 0.1211 0.803 0.1211
1708781789.1781 0.807 0.030 0.1226 0.809 0.1226
1708781789.1856 0.813 0.031 0.1180 0.815 0.1180
1708781789.1935 0.820 0.032 0.1164 0.822 0.1164
1708781789.2023 0.826 0.033 0.1164 0.829 0.1164
1708781789.2107 0.832 0.033 0.1180 0.834 0.1180
1708781789.2176 0.839 0.034 0.1180 0.841 0.1180
1708781789.2257 0.846 0.035 0.1164 0.848 0.1164
1708781789.2338 0.852 0.036 0.1133 0.854 0.1133
1708781789.2415 0.857 0.036 0.1118 0.860 0.1118
1708781789.2501 0.863 0.037 0.1087 0.866 0.1087
1708781789.2584 0.870 0.038 0.1071 0.872 0.1071
1708781789.2665 0.876 0.038 0.1056 0.878 0.1056
1708781789.2742 0.882 0.039 0.1024 0.885 0.1024
1708781789.2820 0.889 0.040 0.0978 0.892 0.0978
1708781789.2903 0.895 0.040 0.0978 0.898 0.0978
1708781789.2975 0.902 0.041 0.0962 0.904 0.0962
1708781789.3057 0.908 0.042 0.0931 0.910 0.0931
1708781789.3137 0.914 0.042 0.0900 0.916 0.0900
1708781789.3216 0.920 0.043 0.0900 0.923 0.0900
1708781789.3303 0.927 0.043 0.0885 0.929 0.0885
1708781789.3383 0.933 0.044 0.0838 0.936 0.0838
1708781789.3461 0.940 0.044 0.0776 0.943 0.0776
1708781789.3544 0.947 0.045 0.0776 0.949 0.0776
1708781789.3614 0.953 0.045 0.0776 0.955 0.0776
1708781789.3702 0.959 0.046 0.0761 0.962 0.0761
1708781789.3778 0.965 0.046 0.0714 0.968 0.0714
1708781789.3863 0.972 0.047 0.0699 0.974 0.0699
1708781789.3940 0.978 0.047 0.0683 0.981 0.0683
1708781789.4021 0.984 0.048 0.0667 0.987 0.0667
1708781789.4102 0.990 0.048 0.0667 0.993 0.0667
1708781789.4190 0.997 0.049 0.0636 1.000 0.0636
1708781789.4256 1.004 0.049 0.0590 1.007 0.0590
1708781789.4341 1.011 0.049 0.0559 1.014 0.0559
1708781789.4419 1.017 0.050 0.0574 1.020 0.0574
1708781789.4499 1.022 0.050 0.0590 1.025 0.0590
1708781789.4576 1.028 0.050 0.0559 1.031 0.0559
1708781789.4654 1.035 0.051 0.0512 1.038 0.0512
1708781789.4744 1.042 0.051 0.0528 1.045 0.0528
1708781789.4827 1.048 0.051 0.0574 1.051 0.0574
1708781789.4895 1.055 0.052 0.0590 1.058 0.0590
1708781789.4978 1.061 0.052 0.0512 1.064 0.0512
1708781789.5060 1.067 0.052 0.0466 1.070 0.0466
1708781789.5136 1.073 0.053 0.0466 1.076 0.0466
1708781789.5217 1.080 0.053 0.0512 1.083 0.0512
1708781789.5302 1.086 0.053 0.0481 1.089 0.0481
1708781789.5380 1.093 0.054 0.0388 1.096 0.0388
1708781789.5455 1.099 0.054 0.0341 1.102 0.0341
1708781789.5536 1.106 0.054 0.0373 1.109 0.0373
1708781789.5623 1.111 0.054 0.0419 1.114 0.0419
1708781789.5699 1.118 0.055 0.0373 1.121 0.0373
1708781789.5790 1.125 0.055 0.0310 1.128 0.0310
1708781789.5861 1.131 0.055 0.0326 1.134 0.0326
1708781789.5942 1.137 0.055 0.0326 1.140 0.0326
1708781789.6023 1.144 0.055 0.0341 1.147 0.0341
1708781789.6099 1.150 0.056 0.0341 1.153 0.0341
1708781789.6181 1.156 0.056 0.0341 1.160 0.0341
1708781789.6261 1.163 0.056 0.0326 1.166 0.0326
1708781789.6335 1.169 0.056 0.0326 1.172 0.0326
1708781789.6416 1.175 0.057 0.0341 1.178 0.0341
1708781789.6496 1.181 0.057 0.0341 1.184 0.0341
1708781789.6580 1.188 0.057 0.0341 1.191 0.0341
1708781789.6664 1.194 0.057 0.0357 1.197 0.0357
1708781789.6745 1.201 0.057 0.0373 1.204 0.0373
1708781789.6820 1.208 0.058 0.0357 1.211 0.0357
1708781789.6904 1.214 0.058 0.0357 1.217 0.0357
1708781789.6984 1.219 0.058 0.0388 1.222 0.0388
1708781789.7057 1.226 0.058 0.0419 1.229 0.0419
1708781789.7137 1.232 0.059 0.0404 1.235 0.0404
1708781789.7218 1.238 0.059 0.0404 1.241 0.0404
1708781789.7303 1.244 0.059 0.0435 1.247 0.0435
1708781789.7383 1.251 0.059 0.0481 1.254 0.0481
1708781789.7463 1.258 0.060 0.0466 1.261 0.0466
1708781789.7540 1.264 0.060 0.0450 1.268 0.0450
1708781789.7623 1.270 0.060 0.0481 1.274 0.0481
1708781789.7704 1.276 0.061 0.0543 1.280 0.0543
1708781789.7777 1.283 0.061 0.0574 1.286 0.0574
1708781789.7857 1.290 0.061 0.0559 1.293 0.0559
1708781789.7942 1.296 0.062 0.0543 1.300 0.0543
1708781789.8019 1.302 0.062 0.0590 1.305 0.0590
1708781789.8099 1.309 0.063 0.0636 1.312 0.0636
1708781789.8178 1.316 0.063 0.0652 1.319 0.0652
1708781789.8256 1.322 0.063 0.0652 1.325 0.0652
1708781789.8338 1.328 0.064 0.0636 1.331 0.0636
1708781789.8419 1.334 0.064 0.0683 1.337 0.0683
1708781789.8500 1.341 0.065 0.0730 1.344 0.0730
1708781789.8580 1.348 0.065 0.0730 1.351 0.0730
1708781789.8660 1.354 0.066 0.0683 1.357 0.0683
1708781789.8740 1.360 0.066 0.0714 1.363 0.0714
1708781789.8819 1.366 0.066 0.0776 1.369 0.0776
1708781789.8899 1.372 0.067 0.0823 1.376 0.0823
1708781789.8976 1.379 0.067 0.0807 1.382 0.0807
1708781789.9057 1.386 0.068 0.0823 1.389 0.0823
1708781789.9136 1.392 0.069 0.0854 1.395 0.0854
1708781789.9224 1.398 0.069 0.0885 1.401 0.0885
1708781789.9300 1.405 0.070 0.0900 1.408 0.0900
1708781789.9380 1.412 0.070 0.0916 1.415 0.0916
1708781789.9457 1.418 0.071 0.0931 1.421 0.0931
1708781789.9537 1.423 0.071 0.0962 1.427 0.0962
1708781789.9623 1.430 0.072 0.0993 1.433 0.0993
1708781789.9698 1.437 0.073 0.1040 1.440 0.1040
1708781789.9776 1.444 0.074 0.1040 1.447 0.1040
1708781789.9856 1.450 0.074 0.1056 1.454 0.1056
1708781789.9943 1.455 0.075 0.1071 1.459 0.1071
1708781790.0024 1.462 0.075 0.1087 1.465 0.1087
1708781790.0102 1.469 0.076 0.1118 1.473 0.1118
1708781790.0181 1.476 0.077 0.1118 1.480 0.1118
1708781790.0256 1.482 0.078 0.1118 1.486 0.1118
1708781790.0344 1.487 0.078 0.1164 1.491 0.1164
1708781790.0421 1.494 0.079 0.1195 1.498 0.1195
1708781790.0500 1.501 0.080 0.1195 1.505 0.1195
1708781790.0580 1.507 0.081 0.1195 1.511 0.1195
1708781790.0657 1.513 0.081 0.1242 1.517 0.1242
1708781790.0738 1.519 0.082 0.1242 1.523 0.1242
1708781790.0819 1.525 0.083 0.1242 1.530 0.1242
1708781790.0897 1.532 0.084 0.1226 1.537 0.1226
1708781790.0982 1.538 0.085 0.1273 1.543 0.1273
1708781790.1060 1.544 0.085 0.1288 1.549 0.1288
1708781790.1138 1.550 0.086 0.1304 1.555 0.1304
1708781790.1218 1.557 0.087 0.1288 1.561 0.1288
1708781790.1295 1.563 0.088 0.1273 1.568 0.1273
1708781790.1383 1.569 0.089 0.1304 1.574 0.1304
1708781790.1456 1.575 0.089 0.1335 1.580 0.1335
1708781790.1536 1.582 0.090 0.1304 1.587 0.1304
1708781790.1624 1.588 0.091 0.1288 1.593 0.1288
1708781790.1695 1.595 0.092 0.1304 1.599 0.1304
1708781790.1787 1.601 0.093 0.1319 1.606 0.1319
1708781790.1863 1.607 0.094 0.1319 1.612 0.1319
1708781790.1941 1.614 0.094 0.1304 1.619 0.1304
1708781790.2022 1.621 0.095 0.1288 1.626 0.1288
1708781790.2100 1.626 0.096 0.1304 1.631 0.1304
1708781790.2180 1.632 0.097 0.1304 1.637 0.1304
1708781790.2259 1.639 0.098 0.1273 1.644 0.1273
1708781790.2343 1.646 0.099 0.1288 1.651 0.1288
1708781790.2424 1.652 0.099 0.1319 1.658 0.1319
1708781790.2503 1.658 0.100 0.1319 1.664 0.1319
1708781790.2580 1.665 0.101 0.1319 1.670 0.1319
1708781790.2657 1.671 0.102 0.1288 1.676 0.1288
1708781790.2740 1.677 0.103 0.1273 1.683 0.1273
1708781790.2823 1.683 0.103 0.1273 1.689 0.1273
1708781790.2903 1.690 0.104 0.1288 1.695 0.1288
1708781790.2974 1.697 0.105 0.1273 1.702 0.1273
1708781790.3064 1.703 0.106 0.1273 1.709 0.1273
1708781790.3138 1.708 0.107 0.1257 1.714 0.1257
1708781790.3220 1.715 0.107 0.1242 1.720 0.1242
1708781790.3296 1.721 0.108 0.1211 1.727 0.1211
1708781790.3378 1.728 0.109 0.1180 1.734 0.1180
1708781790.3460 1.734 0.110 0.1164 1.740 0.1164
1708781790.3539 1.740 0.111 0.1180 1.746 0.1180
1708781790.3616 1.747 0.111 0.1149 1.753 0.1149
1708781790.3698 1.753 0.112 0.1102 1.759 0.1102
1708781790.3779 1.760 0.113 0.1087 1.766 0.1087
1708781790.3862 1.766 0.113 0.1102 1.772 0.1102
1708781790.3944 1.772 0.114 0.1118 1.778 0.1118
1708781790.4021 1.779 0.115 0.1087 1.785 0.1087
1708781790.4094 1.785 0.116 0.1040 1.792 0.1040
1708781790.4193 1.791 0.116 0.1009 1.798 0.1009
1708781790.4261 1.797 0.117 0.1009 1.803 0.1009
1708781790.4343 1.804 0.117 0.1009 1.810 0.1009
1708781790.4415 1.810 0.118 0.0993 1.817 0.0993
1708781790.4504 1.816 0.119 0.0978 1.823 0.0978
1708781790.4584 1.822 0.119 0.0947 1.828 0.0947
1708781790.4698 1.828 0.120 0.0931 1.835 0.0931
1708781790.4750 1.835 0.120 0.0931 1.842 0.0931
1708781790.4818 1.842 0.121 0.0931 1.848 0.0931
1708781790.4902 1.846 0.121 0.0916 1.853 0.0916
1708781790.4980 1.851 0.122 0.0885 1.857 0.0885
1708781790.5058 1.857 0.122 0.0823 1.864 0.0823
1708781790.5142 1.864 0.123 0.0776 1.871 0.0776
1708781790.5221 1.871 0.124 0.0776 1.878 0.0776
1708781790.5295 1.877 0.124 0.0792 1.884 0.0792
1708781790.5379 1.883 0.124 0.0761 1.889 0.0761
1708781790.5457 1.889 0.125 0.0699 1.896 0.0699
1708781790.5536 1.896 0.125 0.0667 1.902 0.0667
1708781790.5616 1.902 0.126 0.0714 1.909 0.0714
1708781790.5695 1.908 0.126 0.0714 1.915 0.0714
1708781790.5784 1.914 0.127 0.0636 1.921 0.0636
1708781790.5857 1.921 0.127 0.0590 1.927 0.0590
1708781790.5935 1.928 0.127 0.0574 1.935 0.0574
1708781790.6015 1.934 0.128 0.0590 1.941 0.0590
1708781790.6096 1.940 0.128 0.0590 1.946 0.0590
1708781790.6184 1.946 0.129 0.0574 1.953 0.0574
1708781790.6263 1.953 0.129 0.0528 1.960 0.0528
1708781790.6340 1.960 0.129 0.0481 1.967 0.0481
1708781790.6417 1.967 0.130 0.0497 1.974 0.0497
1708781790.6500 1.973 0.130 0.0528 1.980 0.0528
1708781790.6581 1.978 0.130 0.0497 1.985 0.0497
1708781790.6689 1.985 0.131 0.0450 1.992 0.0450
1708781790.6932 2.007 0.132 0.0450 2.014 0.0450
1708781790.6976 2.015 0.132 0.0466 2.021 0.0466
1708781790.7056 2.021 0.132 0.0466 2.028 0.0466
1708781790.7149 2.025 0.132 0.0497 2.032 0.0497
1708781790.7215 2.029 0.133 0.0512 2.036 0.0512
1708781790.7309 2.036 0.133 0.0481 2.043 0.0481
1708781790.7389 2.043 0.133 0.0435 2.050 0.0435
1708781790.7466 2.050 0.134 0.0419 2.057 0.0419
1708781790.7535 2.056 0.134 0.0435 2.063 0.0435
1708781790.7637 2.062 0.134 0.0466 2.069 0.0466
1708781790.7704 2.067 0.134 0.0450 2.074 0.0450
1708781790.7785 2.074 0.135 0.0404 2.081 0.0404
1708781790.7873 2.080 0.135 0.0404 2.087 0.0404
1708781790.7936 2.086 0.135 0.0435 2.093 0.0435
1708781790.8016 2.093 0.135 0.0435 2.099 0.0435
1708781790.8108 2.098 0.136 0.0435 2.105 0.0435
1708781790.8186 2.104 0.136 0.0419 2.111 0.0419
1708781790.8265 2.111 0.136 0.0419 2.118 0.0419
1708781790.8356 2.118 0.136 0.0419 2.125 0.0419
1708781790.8417 2.124 0.137 0.0450 2.131 0.0450
1708781790.8498 2.130 0.137 0.0466 2.137 0.0466
1708781790.8589 2.135 0.137 0.0435 2.142 0.0435
1708781790.8655 2.141 0.137 0.0419 2.148 0.0419
1708781790.8755 2.148 0.138 0.0419 2.155 0.0419
1708781790.8917 2.161 0.138 0.0466 2.168 0.0466
1708781790.8976 2.168 0.139 0.0481 2.175 0.0481
1708781790.9084 2.174 0.139 0.0481 2.181 0.0481
1708781790.9140 2.179 0.139 0.0466 2.186 0.0466
1708781790.9217 2.184 0.139 0.0528 2.192 0.0528
1708781790.9319 2.190 0.140 0.0543 2.197 0.0543
1708781790.9385 2.197 0.140 0.0528 2.204 0.0528
1708781790.9465 2.204 0.140 0.0497 2.211 0.0497
1708781790.9551 2.210 0.141 0.0543 2.217 0.0543
1708781790.9615 2.216 0.141 0.0574 2.223 0.0574
1708781790.9695 2.222 0.141 0.0559 2.229 0.0559
1708781790.9785 2.228 0.142 0.0528 2.235 0.0528
1708781790.9862 2.234 0.142 0.0559 2.241 0.0559
1708781790.9939 2.241 0.143 0.0590 2.248 0.0590
1708781791.0031 2.247 0.143 0.0574 2.254 0.0574
1708781791.0097 2.252 0.143 0.0574 2.259 0.0574
1708781791.0179 2.258 0.144 0.0590 2.265 0.0590
1708781791.0272 2.265 0.144 0.0652 2.272 0.0652
1708781791.0339 2.272 0.144 0.0667 2.279 0.0667
1708781791.0417 2.278 0.145 0.0667 2.286 0.0667
1708781791.0519 2.284 0.145 0.0714 2.291 0.0714
1708781791.0574 2.290 0.146 0.0714 2.297 0.0714
1708781791.0656 2.296 0.146 0.0745 2.303 0.0745
1708781791.0749 2.302 0.147 0.0776 2.309 0.0776
1708781791.0816 2.308 0.147 0.0776 2.315 0.0776
1708781791.0906 2.315 0.148 0.0792 2.322 0.0792
1708781791.0991 2.321 0.148 0.0807 2.328 0.0807
1708781791.1058 2.328 0.149 0.0854 2.335 0.0854
1708781791.1139 2.334 0.149 0.0823 2.341 0.0823
1708781791.1231 2.340 0.150 0.0823 2.347 0.0823
1708781791.1298 2.346 0.150 0.0838 2.353 0.0838
1708781791.1380 2.352 0.151 0.0885 2.360 0.0885
1708781791.1470 2.359 0.151 0.0931 2.366 0.0931
1708781791.1536 2.365 0.152 0.0947 2.372 0.0947
1708781791.1617 2.371 0.152 0.0947 2.379 0.0947
1708781791.1709 2.377 0.153 0.0962 2.385 0.0962
1708781791.1776 2.384 0.154 0.0962 2.391 0.0962
1708781791.1864 2.390 0.154 0.0978 2.398 0.0978
1708781791.1952 2.396 0.155 0.0993 2.404 0.0993
1708781791.2018 2.402 0.155 0.1009 2.410 0.1009
1708781791.2099 2.409 0.156 0.1009 2.417 0.1009
1708781791.2190 2.415 0.157 0.1040 2.423 0.1040
1708781791.2262 2.421 0.157 0.1087 2.428 0.1087
1708781791.2341 2.427 0.158 0.1118 2.435 0.1118
1708781791.2430 2.434 0.159 0.1087 2.442 0.1087
1708781791.2496 2.440 0.159 0.1056 2.448 0.1056
