% Pose without folding and reset (log_20240216_154706.837/log_pose_abs.txt)
% 1 	Time (sec)
% 2,3 	Position x,y (m)
% 4 	heading (rad)
% 5 	Driven distance (m) - signed
% 6 	Turned angle (rad) - signed
1708094827.4869 0.000 0.000 0.0000 0.000 0.0000
1708094827.4955 0.000 0.000 0.0000 0.000 0.0000
1708094827.5025 0.000 0.000 0.0000 0.000 0.0000
1708094827.5097 0.000 0.000 0.0000 0.000 0.0000
1708094827.5186 0.000 0.000 0.0000 0.000 0.0000
1708094827.5261 0.000 0.000 0.0000 0.000 0.0000
1708094827.5336 0.000 0.000 0.0000 0.000 0.0000
1708094827.5429 0.000 0.000 0.0000 0.000 0.0000
1708094827.5501 0.000 0.000 0.0000 0.000 0.0000
1708094827.5583 0.000 0.000 0.0000 0.000 0.0000
1708094827.5664 0.000 0.000 0.0000 0.000 0.0000
1708094827.5741 0.000 0.000 0.0000 0.000 0.0000
1708094827.5820 0.000 0.000 0.0000 0.000 0.0000
1708094827.5927 0.000 0.000 0.0000 0.000 0.0000
1708094827.5978 0.000 0.000 0.0000 0.000 0.0000
1708094827.6065 0.000 0.000 0.0000 0.000 0.0000
1708094827.6152 0.000 0.000 0.0031 0.000 0.0031
1708094827.6217 0.001 0.000 0.0062 0.001 0.0062
1708094827.6297 0.002 0.000 0.0124 0.002 0.0124
1708094827.6386 0.003 0.000 0.0186 0.003 0.0186
1708094827.6461 0.004 0.000 0.0264 0.004 0.0264
1708094827.6540 0.005 0.000 0.0357 0.005 0.0357
1708094827.6635 0.006 0.000 0.0450 0.006 0.0450
1708094827.6697 0.007 0.000 0.0605 0.007 0.0605
1708094827.6801 0.008 0.000 0.0776 0.008 0.0776
1708094827.6873 0.010 0.000 0.0900 0.010 0.0900
1708094827.6959 0.011 0.001 0.1087 0.011 0.1087
1708094827.7017 0.013 0.001 0.1273 0.013 0.1273
1708094827.7103 0.014 0.001 0.1459 0.014 0.1459
1708094827.7189 0.015 0.001 0.1599 0.015 0.1599
1708094827.7256 0.016 0.001 0.1770 0.016 0.1770
1708094827.7345 0.017 0.001 0.1971 0.018 0.1971
1708094827.7428 0.019 0.002 0.2189 0.019 0.2189
1708094827.7497 0.020 0.002 0.2390 0.020 0.2390
1708094827.7583 0.021 0.002 0.2623 0.022 0.2623
1708094827.7660 0.023 0.003 0.2841 0.024 0.2841
1708094827.7739 0.025 0.004 0.3042 0.026 0.3042
1708094827.7829 0.027 0.004 0.3213 0.027 0.3213
1708094827.7896 0.028 0.005 0.3399 0.029 0.3399
1708094827.7982 0.030 0.005 0.3586 0.031 0.3586
1708094827.8073 0.032 0.006 0.3741 0.033 0.3741
1708094827.8138 0.033 0.006 0.3850 0.034 0.3850
1708094827.8216 0.034 0.007 0.3974 0.035 0.3974
1708094827.8305 0.036 0.008 0.4067 0.037 0.4067
1708094827.8381 0.037 0.008 0.4145 0.038 0.4145
1708094827.8457 0.038 0.009 0.4238 0.040 0.4238
1708094827.8548 0.040 0.009 0.4315 0.041 0.4315
1708094827.8622 0.041 0.010 0.4346 0.043 0.4346
1708094827.8703 0.043 0.011 0.4393 0.044 0.4393
1708094827.8791 0.044 0.011 0.4408 0.046 0.4408
1708094827.8857 0.045 0.012 0.4408 0.048 0.4408
1708094827.8936 0.047 0.013 0.4408 0.049 0.4408
1708094827.9025 0.048 0.013 0.4377 0.051 0.4377
1708094827.9099 0.050 0.014 0.4346 0.052 0.4346
1708094827.9181 0.050 0.014 0.4377 0.052 0.4377
1708094827.9291 0.051 0.015 0.4331 0.054 0.4331
1708094827.9337 0.053 0.015 0.4253 0.056 0.4253
1708094827.9422 0.054 0.016 0.4191 0.057 0.4191
1708094827.9520 0.055 0.016 0.4160 0.058 0.4160
1708094827.9577 0.056 0.017 0.4082 0.059 0.4082
1708094827.9661 0.057 0.017 0.3943 0.061 0.3943
1708094827.9753 0.059 0.018 0.3850 0.062 0.3850
1708094827.9816 0.060 0.019 0.3803 0.064 0.3803
1708094827.9906 0.062 0.019 0.3756 0.066 0.3756
1708094827.9989 0.063 0.020 0.3694 0.067 0.3694
1708094828.0066 0.065 0.020 0.3617 0.068 0.3617
1708094828.0145 0.066 0.021 0.3539 0.070 0.3539
1708094828.0223 0.068 0.021 0.3508 0.072 0.3508
1708094828.0300 0.069 0.022 0.3462 0.073 0.3462
1708094828.0379 0.070 0.022 0.3399 0.074 0.3399
1708094828.0463 0.072 0.023 0.3368 0.076 0.3368
1708094828.0539 0.073 0.023 0.3337 0.078 0.3337
1708094828.0617 0.075 0.024 0.3306 0.079 0.3306
1708094828.0709 0.076 0.024 0.3291 0.081 0.3291
1708094828.0776 0.078 0.025 0.3291 0.082 0.3291
1708094828.0864 0.079 0.025 0.3291 0.084 0.3291
1708094828.0950 0.081 0.026 0.3306 0.085 0.3306
1708094828.1016 0.082 0.027 0.3306 0.087 0.3306
1708094828.1105 0.084 0.027 0.3322 0.089 0.3322
1708094828.1184 0.085 0.027 0.3337 0.090 0.3337
1708094828.1261 0.087 0.028 0.3337 0.092 0.3337
1708094828.1337 0.089 0.029 0.3353 0.094 0.3353
1708094828.1433 0.090 0.029 0.3399 0.096 0.3399
1708094828.1500 0.091 0.030 0.3430 0.097 0.3430
1708094828.1584 0.093 0.030 0.3446 0.098 0.3446
1708094828.1664 0.095 0.031 0.3430 0.101 0.3430
1708094828.1741 0.097 0.032 0.3462 0.102 0.3462
1708094828.1819 0.098 0.032 0.3493 0.104 0.3493
1708094828.1903 0.099 0.032 0.3539 0.105 0.3539
1708094828.1976 0.101 0.033 0.3555 0.107 0.3555
1708094828.2056 0.102 0.034 0.3555 0.108 0.3555
1708094828.2146 0.104 0.034 0.3555 0.110 0.3555
1708094828.2220 0.105 0.035 0.3586 0.111 0.3586
1708094828.2299 0.106 0.035 0.3601 0.113 0.3601
1708094828.2388 0.108 0.036 0.3601 0.115 0.3601
1708094828.2460 0.110 0.036 0.3617 0.116 0.3617
1708094828.2539 0.111 0.037 0.3601 0.118 0.3601
1708094828.2629 0.112 0.037 0.3555 0.119 0.3555
1708094828.2706 0.114 0.038 0.3570 0.121 0.3570
1708094828.2785 0.116 0.039 0.3555 0.123 0.3555
1708094828.2866 0.117 0.039 0.3524 0.124 0.3524
1708094828.2939 0.118 0.040 0.3462 0.125 0.3462
1708094828.3018 0.120 0.040 0.3446 0.127 0.3446
1708094828.3116 0.121 0.041 0.3493 0.129 0.3493
1708094828.3182 0.123 0.041 0.3524 0.130 0.3524
1708094828.3261 0.125 0.042 0.3524 0.132 0.3524
1708094828.3350 0.126 0.042 0.3477 0.134 0.3477
1708094828.3423 0.127 0.043 0.3430 0.135 0.3430
1708094828.3502 0.129 0.043 0.3446 0.137 0.3446
1708094828.3590 0.130 0.044 0.3446 0.138 0.3446
1708094828.3656 0.132 0.045 0.3415 0.140 0.3415
1708094828.3745 0.134 0.045 0.3337 0.142 0.3337
1708094828.3823 0.135 0.046 0.3291 0.143 0.3291
1708094828.3899 0.137 0.046 0.3291 0.145 0.3291
1708094828.3978 0.138 0.047 0.3260 0.147 0.3260
1708094828.4066 0.140 0.047 0.3198 0.148 0.3198
1708094828.4144 0.141 0.048 0.3167 0.150 0.3167
1708094828.4224 0.142 0.048 0.3151 0.151 0.3151
1708094828.4306 0.144 0.049 0.3120 0.153 0.3120
1708094828.4385 0.146 0.049 0.3073 0.155 0.3073
1708094828.4465 0.147 0.050 0.3027 0.156 0.3027
1708094828.4546 0.148 0.050 0.3011 0.157 0.3011
1708094828.4633 0.150 0.050 0.3058 0.159 0.3058
1708094828.4701 0.152 0.051 0.3089 0.161 0.3089
1708094828.4789 0.153 0.051 0.3042 0.162 0.3042
1708094828.4862 0.155 0.052 0.3011 0.164 0.3011
1708094828.4943 0.157 0.053 0.3011 0.166 0.3011
1708094828.5031 0.158 0.053 0.3058 0.167 0.3058
1708094828.5096 0.159 0.053 0.3089 0.168 0.3089
1708094828.5183 0.161 0.054 0.3089 0.170 0.3089
1708094828.5262 0.162 0.054 0.3120 0.172 0.3120
1708094828.5339 0.164 0.055 0.3167 0.174 0.3167
1708094828.5424 0.165 0.055 0.3213 0.175 0.3213
1708094828.5512 0.167 0.056 0.3244 0.176 0.3244
1708094828.5577 0.169 0.056 0.3291 0.178 0.3291
1708094828.5665 0.170 0.057 0.3306 0.180 0.3306
1708094828.5742 0.171 0.057 0.3337 0.181 0.3337
1708094828.5816 0.172 0.058 0.3384 0.183 0.3384
1708094828.5904 0.174 0.058 0.3430 0.184 0.3430
1708094828.5989 0.176 0.059 0.3462 0.186 0.3462
1708094828.6065 0.178 0.060 0.3462 0.188 0.3462
1708094828.6143 0.179 0.060 0.3462 0.190 0.3462
1708094828.6231 0.180 0.060 0.3524 0.191 0.3524
1708094828.6304 0.181 0.061 0.3570 0.192 0.3570
1708094828.6382 0.183 0.062 0.3570 0.194 0.3570
1708094828.6465 0.185 0.062 0.3524 0.196 0.3524
1708094828.6541 0.186 0.063 0.3539 0.197 0.3539
1708094828.6618 0.187 0.063 0.3617 0.198 0.3617
1708094828.6715 0.189 0.064 0.3679 0.200 0.3679
1708094828.6781 0.191 0.064 0.3679 0.202 0.3679
1708094828.6859 0.192 0.065 0.3617 0.203 0.3617
1708094828.6942 0.193 0.065 0.3617 0.205 0.3617
1708094828.7018 0.194 0.066 0.3663 0.206 0.3663
1708094828.7096 0.196 0.067 0.3725 0.208 0.3725
1708094828.7193 0.198 0.067 0.3725 0.210 0.3725
1708094828.7259 0.200 0.068 0.3663 0.212 0.3663
1708094828.7346 0.201 0.068 0.3648 0.213 0.3648
1708094828.7431 0.202 0.069 0.3694 0.214 0.3694
1708094828.7496 0.204 0.069 0.3741 0.216 0.3741
1708094828.7579 0.205 0.070 0.3741 0.218 0.3741
1708094828.7666 0.207 0.071 0.3694 0.220 0.3694
1708094828.7743 0.208 0.071 0.3679 0.221 0.3679
1708094828.7820 0.210 0.072 0.3741 0.222 0.3741
1708094828.7907 0.211 0.072 0.3834 0.224 0.3834
1708094828.7979 0.213 0.073 0.3850 0.226 0.3850
1708094828.8065 0.214 0.073 0.3803 0.227 0.3803
1708094828.8143 0.215 0.074 0.3819 0.229 0.3819
1708094828.8219 0.217 0.075 0.3881 0.230 0.3881
1708094828.8297 0.218 0.075 0.3974 0.232 0.3974
1708094828.8384 0.220 0.076 0.3974 0.233 0.3974
1708094828.8456 0.221 0.077 0.3943 0.235 0.3943
1708094828.8543 0.223 0.077 0.3958 0.237 0.3958
1708094828.8630 0.224 0.078 0.4051 0.238 0.4051
1708094828.8697 0.226 0.078 0.4129 0.240 0.4129
1708094828.8786 0.227 0.079 0.4098 0.241 0.4098
1708094828.8865 0.228 0.080 0.4051 0.243 0.4051
1708094828.8937 0.230 0.080 0.4067 0.244 0.4067
1708094828.9022 0.231 0.081 0.4098 0.246 0.4098
1708094828.9110 0.233 0.081 0.4098 0.247 0.4098
1708094828.9177 0.234 0.082 0.4082 0.249 0.4082
1708094828.9266 0.236 0.083 0.4067 0.250 0.4067
1708094828.9343 0.237 0.083 0.4113 0.252 0.4113
1708094828.9425 0.238 0.084 0.4113 0.254 0.4113
1708094828.9502 0.240 0.085 0.4098 0.255 0.4098
1708094828.9590 0.241 0.085 0.4067 0.257 0.4067
1708094828.9656 0.243 0.086 0.4036 0.258 0.4036
1708094828.9744 0.244 0.087 0.4051 0.260 0.4051
1708094828.9828 0.246 0.087 0.4067 0.261 0.4067
1708094828.9896 0.247 0.088 0.4051 0.263 0.4051
1708094828.9981 0.249 0.088 0.4005 0.265 0.4005
1708094829.0071 0.250 0.089 0.3974 0.266 0.3974
1708094829.0136 0.251 0.089 0.3943 0.267 0.3943
1708094829.0224 0.253 0.090 0.3927 0.270 0.3927
1708094829.0321 0.254 0.091 0.3927 0.271 0.3927
1708094829.0376 0.256 0.091 0.3912 0.272 0.3912
1708094829.0461 0.257 0.092 0.3865 0.274 0.3865
1708094829.0550 0.258 0.092 0.3850 0.275 0.3850
1708094829.0626 0.260 0.093 0.3850 0.277 0.3850
1708094829.0703 0.262 0.094 0.3819 0.279 0.3819
1708094829.0790 0.263 0.094 0.3772 0.280 0.3772
1708094829.0864 0.264 0.095 0.3725 0.282 0.3725
1708094829.0943 0.266 0.095 0.3679 0.283 0.3679
1708094829.1033 0.267 0.096 0.3617 0.285 0.3617
1708094829.1105 0.269 0.096 0.3524 0.286 0.3524
1708094829.1184 0.270 0.097 0.3462 0.288 0.3462
1708094829.1267 0.272 0.097 0.3399 0.289 0.3399
1708094829.1339 0.273 0.098 0.3322 0.291 0.3322
1708094829.1428 0.275 0.099 0.3229 0.293 0.3229
1708094829.1508 0.276 0.099 0.3136 0.294 0.3136
1708094829.1579 0.278 0.100 0.3089 0.296 0.3089
1708094829.1663 0.280 0.100 0.3058 0.298 0.3058
1708094829.1751 0.281 0.101 0.3058 0.299 0.3058
1708094829.1816 0.282 0.101 0.3058 0.300 0.3058
1708094829.1904 0.284 0.101 0.3011 0.302 0.3011
1708094829.1989 0.285 0.102 0.2980 0.304 0.2980
1708094829.2066 0.287 0.102 0.2980 0.306 0.2980
1708094829.2141 0.288 0.103 0.2980 0.307 0.2980
1708094829.2230 0.290 0.103 0.2996 0.308 0.2996
1708094829.2306 0.291 0.104 0.3027 0.310 0.3027
1708094829.2383 0.293 0.104 0.3027 0.312 0.3027
1708094829.2467 0.295 0.105 0.2965 0.314 0.2965
1708094829.2544 0.296 0.105 0.2856 0.315 0.2856
1708094829.2619 0.298 0.106 0.2763 0.317 0.2763
1708094829.2708 0.300 0.106 0.2670 0.319 0.2670
1708094829.2784 0.302 0.107 0.2561 0.321 0.2561
1708094829.2862 0.303 0.107 0.2422 0.322 0.2422
1708094829.2946 0.304 0.107 0.2282 0.324 0.2282
1708094829.3020 0.306 0.108 0.2127 0.326 0.2127
1708094829.3098 0.308 0.108 0.1987 0.328 0.1987
1708094829.3186 0.310 0.109 0.1832 0.329 0.1832
1708094829.3263 0.312 0.109 0.1676 0.331 0.1676
1708094829.3346 0.314 0.109 0.1521 0.333 0.1521
1708094829.3430 0.315 0.110 0.1366 0.335 0.1366
1708094829.3504 0.317 0.110 0.1211 0.337 0.1211
1708094829.3581 0.319 0.110 0.1056 0.339 0.1056
1708094829.3670 0.321 0.110 0.0916 0.340 0.0916
1708094829.3746 0.322 0.110 0.0807 0.342 0.0807
1708094829.3823 0.324 0.110 0.0683 0.343 0.0683
1708094829.3921 0.326 0.110 0.0590 0.345 0.0590
1708094829.3982 0.327 0.111 0.0497 0.347 0.0497
1708094829.4059 0.329 0.111 0.0435 0.349 0.0435
1708094829.4147 0.330 0.111 0.0373 0.350 0.0373
1708094829.4223 0.332 0.111 0.0341 0.351 0.0341
1708094829.4300 0.333 0.111 0.0279 0.353 0.0279
1708094829.4386 0.335 0.111 0.0217 0.355 0.0217
1708094829.4458 0.337 0.111 0.0155 0.356 0.0155
1708094829.4536 0.338 0.111 0.0109 0.357 0.0109
1708094829.4624 0.339 0.111 0.0093 0.359 0.0093
1708094829.4701 0.341 0.111 0.0031 0.360 0.0031
1708094829.4778 0.343 0.111 -0.0016 0.362 -0.0016
1708094829.4862 0.344 0.111 -0.0031 0.364 -0.0031
1708094829.4944 0.345 0.111 -0.0031 0.365 -0.0031
1708094829.5022 0.347 0.111 -0.0062 0.366 -0.0062
1708094829.5110 0.349 0.111 -0.0109 0.368 -0.0109
1708094829.5186 0.351 0.111 -0.0140 0.370 -0.0140
1708094829.5266 0.352 0.111 -0.0155 0.372 -0.0155
1708094829.5344 0.353 0.111 -0.0202 0.372 -0.0202
1708094829.5427 0.354 0.111 -0.0326 0.374 -0.0326
1708094829.5505 0.356 0.111 -0.0388 0.376 -0.0388
1708094829.5582 0.358 0.111 -0.0450 0.378 -0.0450
1708094829.5658 0.360 0.111 -0.0528 0.379 -0.0528
1708094829.5737 0.361 0.110 -0.0621 0.381 -0.0621
1708094829.5825 0.363 0.110 -0.0730 0.382 -0.0730
1708094829.5901 0.365 0.110 -0.0885 0.384 -0.0885
1708094829.5986 0.366 0.110 -0.1056 0.386 -0.1056
1708094829.6065 0.368 0.110 -0.1195 0.388 -0.1195
1708094829.6141 0.370 0.110 -0.1366 0.389 -0.1366
1708094829.6216 0.371 0.109 -0.1537 0.391 -0.1537
1708094829.6304 0.373 0.109 -0.1707 0.393 -0.1707
1708094829.6380 0.375 0.109 -0.1909 0.394 -0.1909
1708094829.6465 0.377 0.108 -0.2096 0.397 -0.2096
1708094829.6546 0.379 0.108 -0.2282 0.399 -0.2282
1708094829.6621 0.380 0.108 -0.2484 0.400 -0.2484
1708094829.6699 0.382 0.107 -0.2685 0.402 -0.2685
1708094829.6787 0.384 0.107 -0.2887 0.404 -0.2887
1708094829.6863 0.386 0.106 -0.3042 0.406 -0.3042
1708094829.6937 0.388 0.105 -0.3198 0.408 -0.3198
1708094829.7025 0.389 0.105 -0.3353 0.410 -0.3353
1708094829.7099 0.391 0.104 -0.3493 0.411 -0.3493
1708094829.7177 0.393 0.104 -0.3632 0.413 -0.3632
1708094829.7265 0.394 0.103 -0.3756 0.415 -0.3756
1708094829.7341 0.395 0.103 -0.3881 0.416 -0.3881
1708094829.7425 0.397 0.102 -0.3958 0.417 -0.3958
1708094829.7513 0.398 0.101 -0.4005 0.419 -0.4005
1708094829.7578 0.400 0.101 -0.4051 0.421 -0.4051
1708094829.7666 0.401 0.100 -0.4098 0.422 -0.4098
1708094829.7744 0.402 0.100 -0.4145 0.423 -0.4145
1708094829.7820 0.403 0.099 -0.4176 0.424 -0.4176
1708094829.7897 0.404 0.099 -0.4176 0.426 -0.4176
1708094829.7989 0.405 0.098 -0.4160 0.427 -0.4160
1708094829.8065 0.406 0.098 -0.4176 0.428 -0.4176
1708094829.8143 0.408 0.097 -0.4145 0.429 -0.4145
1708094829.8231 0.409 0.097 -0.4098 0.431 -0.4098
1708094829.8296 0.410 0.096 -0.4051 0.432 -0.4051
1708094829.8376 0.411 0.096 -0.3989 0.433 -0.3989
1708094829.8469 0.412 0.095 -0.3896 0.434 -0.3896
1708094829.8546 0.414 0.095 -0.3819 0.436 -0.3819
1708094829.8623 0.416 0.094 -0.3756 0.438 -0.3756
1708094829.8703 0.417 0.093 -0.3710 0.440 -0.3710
1708094829.8779 0.419 0.093 -0.3617 0.441 -0.3617
1708094829.8865 0.420 0.092 -0.3508 0.442 -0.3508
1708094829.8950 0.421 0.092 -0.3430 0.444 -0.3430
1708094829.9026 0.423 0.091 -0.3353 0.446 -0.3353
1708094829.9105 0.425 0.091 -0.3260 0.448 -0.3260
1708094829.9185 0.426 0.090 -0.3182 0.449 -0.3182
1708094829.9262 0.428 0.090 -0.3105 0.451 -0.3105
1708094829.9340 0.429 0.089 -0.3027 0.452 -0.3027
1708094829.9435 0.430 0.089 -0.2965 0.454 -0.2965
1708094829.9500 0.432 0.088 -0.2918 0.456 -0.2918
1708094829.9578 0.434 0.088 -0.2825 0.458 -0.2825
1708094829.9667 0.436 0.087 -0.2779 0.459 -0.2779
1708094829.9741 0.437 0.087 -0.2732 0.461 -0.2732
1708094829.9819 0.439 0.086 -0.2685 0.462 -0.2685
1708094829.9909 0.440 0.086 -0.2639 0.464 -0.2639
1708094829.9983 0.442 0.085 -0.2608 0.466 -0.2608
1708094830.0063 0.444 0.085 -0.2592 0.468 -0.2592
1708094830.0153 0.445 0.085 -0.2561 0.469 -0.2561
1708094830.0220 0.446 0.084 -0.2484 0.470 -0.2484
1708094830.0299 0.448 0.084 -0.2422 0.472 -0.2422
1708094830.0391 0.450 0.084 -0.2406 0.474 -0.2406
1708094830.0465 0.451 0.083 -0.2406 0.475 -0.2406
1708094830.0544 0.453 0.083 -0.2375 0.477 -0.2375
1708094830.0623 0.454 0.083 -0.2297 0.478 -0.2297
1708094830.0699 0.455 0.082 -0.2251 0.480 -0.2251
1708094830.0781 0.457 0.082 -0.2251 0.481 -0.2251
1708094830.0864 0.459 0.081 -0.2266 0.483 -0.2266
1708094830.0938 0.460 0.081 -0.2251 0.485 -0.2251
1708094830.1019 0.462 0.081 -0.2189 0.486 -0.2189
1708094830.1120 0.463 0.080 -0.2096 0.487 -0.2096
1708094830.1181 0.464 0.080 -0.2096 0.489 -0.2096
1708094830.1267 0.466 0.080 -0.2111 0.490 -0.2111
1708094830.1346 0.468 0.079 -0.2127 0.492 -0.2127
1708094830.1430 0.470 0.079 -0.2080 0.494 -0.2080
1708094830.1498 0.471 0.079 -0.2018 0.495 -0.2018
1708094830.1594 0.472 0.079 -0.1987 0.496 -0.1987
1708094830.1658 0.474 0.078 -0.2002 0.498 -0.2002
1708094830.1744 0.475 0.078 -0.2002 0.500 -0.2002
1708094830.1824 0.477 0.077 -0.1940 0.502 -0.1940
1708094830.1934 0.478 0.077 -0.1878 0.503 -0.1878
1708094830.1979 0.479 0.077 -0.1847 0.504 -0.1847
1708094830.2068 0.481 0.077 -0.1832 0.506 -0.1832
1708094830.2146 0.483 0.076 -0.1832 0.507 -0.1832
1708094830.2256 0.484 0.076 -0.1770 0.509 -0.1770
1708094830.2315 0.486 0.076 -0.1661 0.511 -0.1661
1708094830.2385 0.487 0.076 -0.1583 0.512 -0.1583
1708094830.2464 0.489 0.075 -0.1568 0.514 -0.1568
1708094830.2549 0.490 0.075 -0.1614 0.515 -0.1614
1708094830.2617 0.492 0.075 -0.1599 0.517 -0.1599
1708094830.2697 0.494 0.075 -0.1537 0.518 -0.1537
1708094830.2809 0.495 0.074 -0.1459 0.520 -0.1459
1708094830.2864 0.496 0.074 -0.1413 0.521 -0.1413
1708094830.2938 0.498 0.074 -0.1413 0.523 -0.1413
1708094830.3030 0.500 0.074 -0.1428 0.525 -0.1428
1708094830.3097 0.501 0.074 -0.1413 0.526 -0.1413
1708094830.3177 0.502 0.073 -0.1366 0.527 -0.1366
1708094830.3269 0.504 0.073 -0.1288 0.529 -0.1288
1708094830.3346 0.506 0.073 -0.1257 0.531 -0.1257
1708094830.3423 0.508 0.073 -0.1273 0.533 -0.1273
1708094830.3503 0.509 0.073 -0.1273 0.534 -0.1273
1708094830.3581 0.510 0.072 -0.1226 0.535 -0.1226
1708094830.3664 0.512 0.072 -0.1149 0.537 -0.1149
1708094830.3746 0.513 0.072 -0.1071 0.538 -0.1071
1708094830.3823 0.515 0.072 -0.1087 0.540 -0.1087
1708094830.3905 0.517 0.072 -0.1149 0.542 -0.1149
1708094830.3982 0.518 0.071 -0.1133 0.543 -0.1133
1708094830.4063 0.520 0.071 -0.1040 0.545 -0.1040
1708094830.4146 0.521 0.071 -0.0947 0.546 -0.0947
1708094830.4228 0.523 0.071 -0.0916 0.548 -0.0916
1708094830.4306 0.524 0.071 -0.0931 0.550 -0.0931
1708094830.4378 0.526 0.071 -0.0947 0.551 -0.0947
1708094830.4469 0.528 0.071 -0.0885 0.553 -0.0885
1708094830.4537 0.530 0.070 -0.0792 0.555 -0.0792
1708094830.4620 0.531 0.070 -0.0776 0.556 -0.0776
1708094830.4725 0.532 0.070 -0.0807 0.557 -0.0807
1708094830.4784 0.534 0.070 -0.0807 0.559 -0.0807
1708094830.4864 0.536 0.070 -0.0776 0.561 -0.0776
1708094830.4944 0.537 0.070 -0.0699 0.563 -0.0699
1708094830.5024 0.538 0.070 -0.0652 0.564 -0.0652
1708094830.5101 0.540 0.070 -0.0621 0.565 -0.0621
1708094830.5189 0.542 0.069 -0.0636 0.567 -0.0636
1708094830.5263 0.544 0.069 -0.0605 0.569 -0.0605
1708094830.5345 0.545 0.069 -0.0543 0.571 -0.0543
1708094830.5434 0.547 0.069 -0.0497 0.572 -0.0497
1708094830.5500 0.548 0.069 -0.0481 0.573 -0.0481
1708094830.5578 0.550 0.069 -0.0466 0.575 -0.0466
1708094830.5666 0.551 0.069 -0.0419 0.577 -0.0419
1708094830.5743 0.553 0.069 -0.0373 0.578 -0.0373
1708094830.5820 0.555 0.069 -0.0373 0.580 -0.0373
1708094830.5910 0.556 0.069 -0.0388 0.581 -0.0388
1708094830.5984 0.558 0.069 -0.0373 0.583 -0.0373
1708094830.6061 0.559 0.069 -0.0310 0.584 -0.0310
1708094830.6151 0.561 0.069 -0.0248 0.586 -0.0248
1708094830.6217 0.562 0.069 -0.0248 0.587 -0.0248
1708094830.6306 0.564 0.069 -0.0279 0.589 -0.0279
1708094830.6389 0.565 0.069 -0.0295 0.590 -0.0295
1708094830.6461 0.566 0.068 -0.0264 0.592 -0.0264
1708094830.6538 0.568 0.068 -0.0217 0.594 -0.0217
1708094830.6627 0.570 0.068 -0.0248 0.596 -0.0248
1708094830.6704 0.572 0.068 -0.0264 0.597 -0.0264
1708094830.6777 0.573 0.068 -0.0295 0.598 -0.0295
1708094830.6864 0.574 0.068 -0.0326 0.600 -0.0326
1708094830.6938 0.576 0.068 -0.0373 0.601 -0.0373
1708094830.7029 0.578 0.068 -0.0404 0.603 -0.0404
1708094830.7107 0.579 0.068 -0.0466 0.604 -0.0466
1708094830.7184 0.581 0.068 -0.0497 0.606 -0.0497
