% Pose without folding and reset (log_20240224_141325.657/log_pose_abs.txt)
% 1 	Time (sec)
% 2,3 	Position x,y (m)
% 4 	heading (rad)
% 5 	Driven distance (m) - signed
% 6 	Turned angle (rad) - signed
1708780406.6819 0.000 0.000 0.0000 0.000 0.0000
1708780406.6896 0.000 0.000 0.0000 0.000 0.0000
1708780406.6973 -0.000 -0.000 0.0016 -0.000 0.0016
1708780406.7050 -0.000 -0.000 0.0016 -0.000 0.0016
1708780406.7131 -0.000 -0.000 0.0016 -0.000 0.0016
1708780406.7212 0.003 0.000 0.0031 0.003 0.0031
1708780406.7289 0.007 0.000 0.0000 0.007 0.0000
1708780406.7376 0.009 0.000 -0.0031 0.009 -0.0031
1708780406.7455 0.011 0.000 0.0000 0.011 0.0000
1708780406.7531 0.014 0.000 0.0000 0.014 0.0000
1708780406.7612 0.019 0.000 0.0000 0.019 0.0000
1708780406.7685 0.023 0.000 0.0000 0.023 0.0000
1708780406.7774 0.028 0.000 -0.0016 0.028 -0.0016
1708780406.7845 0.033 -0.000 -0.0031 0.033 -0.0031
1708780406.7932 0.038 -0.000 -0.0000 0.038 -0.0000
1708780406.8009 0.045 -0.000 -0.0000 0.045 -0.0000
1708780406.8092 0.050 -0.000 -0.0016 0.050 -0.0016
1708780406.8174 0.056 -0.000 -0.0016 0.056 -0.0016
1708780406.8252 0.063 -0.000 -0.0016 0.063 -0.0016
1708780406.8334 0.069 -0.000 -0.0031 0.069 -0.0031
1708780406.8415 0.076 -0.000 0.0016 0.076 0.0016
1708780406.8494 0.082 -0.000 0.0016 0.082 0.0016
1708780406.8568 0.089 -0.000 0.0016 0.089 0.0016
1708780406.8654 0.095 -0.000 0.0016 0.095 0.0016
1708780406.8734 0.101 -0.000 0.0016 0.101 0.0016
1708780406.8808 0.108 -0.000 0.0016 0.108 0.0016
1708780406.8893 0.114 -0.000 0.0016 0.114 0.0016
1708780406.8975 0.121 0.000 0.0016 0.121 0.0016
1708780406.9049 0.127 0.000 0.0016 0.127 0.0016
1708780406.9134 0.134 0.000 0.0031 0.134 0.0031
1708780406.9214 0.140 0.000 0.0031 0.140 0.0031
1708780406.9288 0.146 0.000 0.0031 0.146 0.0031
1708780406.9381 0.152 0.000 0.0031 0.152 0.0031
1708780406.9451 0.159 0.000 0.0047 0.159 0.0047
1708780406.9527 0.166 0.000 0.0047 0.166 0.0047
1708780406.9615 0.173 0.000 0.0047 0.173 0.0047
1708780406.9694 0.180 0.000 0.0062 0.180 0.0062
1708780406.9773 0.187 0.000 0.0062 0.187 0.0062
1708780406.9856 0.194 0.000 0.0047 0.194 0.0047
1708780406.9930 0.201 0.000 -0.0000 0.201 -0.0000
1708780407.0016 0.208 0.000 -0.0016 0.208 -0.0016
1708780407.0089 0.215 0.000 0.0016 0.215 0.0016
1708780407.0175 0.222 0.000 -0.0016 0.222 -0.0016
1708780407.0246 0.229 0.000 -0.0047 0.229 -0.0047
1708780407.0328 0.235 0.000 -0.0093 0.235 -0.0093
1708780407.0412 0.240 0.000 -0.0093 0.240 -0.0093
1708780407.0493 0.247 0.000 -0.0124 0.247 -0.0124
1708780407.0573 0.255 0.000 -0.0155 0.255 -0.0155
1708780407.0651 0.261 -0.000 -0.0186 0.261 -0.0186
1708780407.0735 0.268 -0.000 -0.0217 0.268 -0.0217
1708780407.0809 0.274 -0.000 -0.0233 0.274 -0.0233
1708780407.0897 0.281 -0.001 -0.0310 0.281 -0.0310
1708780407.0969 0.288 -0.001 -0.0357 0.288 -0.0357
1708780407.1054 0.294 -0.001 -0.0419 0.294 -0.0419
1708780407.1131 0.299 -0.001 -0.0450 0.299 -0.0450
1708780407.1212 0.306 -0.002 -0.0497 0.306 -0.0497
1708780407.1293 0.312 -0.002 -0.0559 0.312 -0.0559
1708780407.1376 0.319 -0.002 -0.0590 0.319 -0.0590
1708780407.1447 0.325 -0.003 -0.0636 0.325 -0.0636
1708780407.1527 0.331 -0.003 -0.0667 0.331 -0.0667
1708780407.1615 0.338 -0.004 -0.0730 0.338 -0.0730
1708780407.1686 0.344 -0.004 -0.0838 0.344 -0.0838
1708780407.1780 0.350 -0.005 -0.0869 0.350 -0.0869
1708780407.1847 0.356 -0.005 -0.0854 0.356 -0.0854
1708780407.1934 0.363 -0.006 -0.0900 0.363 -0.0900
1708780407.2006 0.369 -0.006 -0.0978 0.369 -0.0978
1708780407.2094 0.375 -0.007 -0.1056 0.375 -0.1056
1708780407.2175 0.381 -0.008 -0.1102 0.382 -0.1102
1708780407.2247 0.388 -0.008 -0.1149 0.388 -0.1149
1708780407.2334 0.394 -0.009 -0.1180 0.395 -0.1180
1708780407.2411 0.400 -0.010 -0.1211 0.400 -0.1211
1708780407.2493 0.406 -0.010 -0.1273 0.406 -0.1273
1708780407.2570 0.413 -0.011 -0.1319 0.413 -0.1319
1708780407.2652 0.419 -0.012 -0.1382 0.420 -0.1382
1708780407.2734 0.426 -0.013 -0.1428 0.426 -0.1428
1708780407.2812 0.431 -0.014 -0.1444 0.432 -0.1444
1708780407.2890 0.438 -0.015 -0.1490 0.439 -0.1490
1708780407.2972 0.444 -0.016 -0.1537 0.445 -0.1537
1708780407.3049 0.450 -0.017 -0.1568 0.451 -0.1568
1708780407.3131 0.457 -0.018 -0.1583 0.458 -0.1583
1708780407.3213 0.463 -0.019 -0.1630 0.464 -0.1630
1708780407.3287 0.470 -0.020 -0.1661 0.471 -0.1661
1708780407.3375 0.476 -0.021 -0.1661 0.477 -0.1661
1708780407.3446 0.482 -0.022 -0.1645 0.483 -0.1645
1708780407.3535 0.488 -0.023 -0.1661 0.490 -0.1661
1708780407.3606 0.495 -0.024 -0.1707 0.496 -0.1707
1708780407.3689 0.501 -0.025 -0.1739 0.503 -0.1739
1708780407.3774 0.507 -0.026 -0.1739 0.508 -0.1739
1708780407.3845 0.512 -0.027 -0.1739 0.514 -0.1739
1708780407.3933 0.519 -0.028 -0.1754 0.521 -0.1754
1708780407.4011 0.525 -0.030 -0.1754 0.527 -0.1754
1708780407.4093 0.532 -0.031 -0.1739 0.534 -0.1739
1708780407.4172 0.538 -0.032 -0.1707 0.540 -0.1707
1708780407.4248 0.544 -0.033 -0.1676 0.547 -0.1676
1708780407.4330 0.551 -0.034 -0.1692 0.553 -0.1692
1708780407.4408 0.557 -0.035 -0.1692 0.559 -0.1692
1708780407.4495 0.563 -0.036 -0.1645 0.565 -0.1645
1708780407.4571 0.568 -0.037 -0.1630 0.571 -0.1630
1708780407.4654 0.575 -0.038 -0.1599 0.578 -0.1599
1708780407.4731 0.582 -0.039 -0.1552 0.585 -0.1552
1708780407.4813 0.588 -0.040 -0.1506 0.591 -0.1506
1708780407.4890 0.594 -0.041 -0.1475 0.597 -0.1475
1708780407.4967 0.601 -0.042 -0.1428 0.604 -0.1428
1708780407.5048 0.607 -0.043 -0.1366 0.610 -0.1366
1708780407.5128 0.613 -0.044 -0.1319 0.616 -0.1319
1708780407.5215 0.619 -0.044 -0.1288 0.623 -0.1288
1708780407.5285 0.626 -0.045 -0.1242 0.630 -0.1242
1708780407.5373 0.633 -0.046 -0.1211 0.636 -0.1211
1708780407.5450 0.638 -0.047 -0.1164 0.641 -0.1164
1708780407.5533 0.644 -0.047 -0.1087 0.648 -0.1087
1708780407.5615 0.651 -0.048 -0.1009 0.655 -0.1009
1708780407.5692 0.659 -0.049 -0.0962 0.662 -0.0962
1708780407.5774 0.665 -0.049 -0.0931 0.668 -0.0931
1708780407.5855 0.670 -0.050 -0.0869 0.673 -0.0869
1708780407.5928 0.676 -0.050 -0.0776 0.680 -0.0776
1708780407.6008 0.683 -0.051 -0.0683 0.687 -0.0683
1708780407.6090 0.690 -0.051 -0.0605 0.693 -0.0605
1708780407.6166 0.696 -0.052 -0.0543 0.700 -0.0543
1708780407.6248 0.702 -0.052 -0.0481 0.706 -0.0481
1708780407.6330 0.709 -0.052 -0.0404 0.713 -0.0404
1708780407.6411 0.716 -0.053 -0.0326 0.719 -0.0326
1708780407.6493 0.722 -0.053 -0.0279 0.725 -0.0279
1708780407.6574 0.728 -0.053 -0.0202 0.732 -0.0202
1708780407.6652 0.735 -0.053 -0.0140 0.739 -0.0140
1708780407.6733 0.741 -0.053 -0.0078 0.745 -0.0078
1708780407.6811 0.747 -0.053 -0.0016 0.751 -0.0016
1708780407.6892 0.754 -0.053 0.0031 0.757 0.0031
1708780407.6973 0.760 -0.053 0.0078 0.764 0.0078
1708780407.7055 0.766 -0.053 0.0140 0.770 0.0140
1708780407.7126 0.773 -0.053 0.0233 0.776 0.0233
1708780407.7222 0.780 -0.053 0.0310 0.783 0.0310
1708780407.7287 0.785 -0.053 0.0357 0.789 0.0357
1708780407.7379 0.792 -0.052 0.0404 0.796 0.0404
1708780407.7450 0.798 -0.052 0.0450 0.802 0.0450
1708780407.7531 0.805 -0.052 0.0512 0.808 0.0512
1708780407.7608 0.810 -0.051 0.0590 0.814 0.0590
1708780407.7693 0.817 -0.051 0.0621 0.820 0.0621
1708780407.7773 0.823 -0.051 0.0636 0.827 0.0636
1708780407.7850 0.830 -0.050 0.0683 0.834 0.0683
1708780407.7927 0.837 -0.050 0.0745 0.840 0.0745
1708780407.8009 0.842 -0.049 0.0807 0.846 0.0807
1708780407.8086 0.849 -0.049 0.0838 0.852 0.0838
1708780407.8168 0.856 -0.048 0.0838 0.859 0.0838
1708780407.8247 0.862 -0.048 0.0869 0.866 0.0869
1708780407.8335 0.868 -0.047 0.0916 0.872 0.0916
1708780407.8412 0.874 -0.047 0.0931 0.878 0.0931
1708780407.8522 0.881 -0.046 0.0931 0.885 0.0931
1708780407.8567 0.888 -0.045 0.0931 0.892 0.0931
1708780407.8649 0.894 -0.045 0.0947 0.898 0.0947
1708780407.8729 0.899 -0.044 0.0993 0.903 0.0993
1708780407.8807 0.904 -0.044 0.1040 0.908 0.1040
1708780407.8895 0.911 -0.043 0.1040 0.915 0.1040
1708780407.8966 0.918 -0.042 0.1009 0.922 0.1009
1708780407.9053 0.924 -0.042 0.1009 0.928 0.1009
1708780407.9133 0.931 -0.041 0.1009 0.935 0.1009
1708780407.9215 0.938 -0.040 0.0978 0.942 0.0978
1708780407.9292 0.944 -0.040 0.0978 0.948 0.0978
1708780407.9380 0.949 -0.039 0.0993 0.954 0.0993
1708780407.9452 0.956 -0.038 0.0978 0.960 0.0978
1708780407.9528 0.962 -0.038 0.0947 0.966 0.0947
1708780407.9608 0.968 -0.037 0.0916 0.972 0.0916
1708780407.9690 0.973 -0.037 0.0916 0.978 0.0916
1708780407.9766 0.980 -0.036 0.0885 0.984 0.0885
1708780407.9848 0.987 -0.036 0.0838 0.991 0.0838
1708780407.9928 0.993 -0.035 0.0838 0.997 0.0838
1708780408.0015 0.999 -0.035 0.0838 1.003 0.0838
1708780408.0086 1.006 -0.034 0.0792 1.010 0.0792
1708780408.0168 1.012 -0.034 0.0714 1.017 0.0714
1708780408.0256 1.018 -0.033 0.0683 1.022 0.0683
1708780408.0326 1.024 -0.033 0.0652 1.028 0.0652
1708780408.0414 1.031 -0.032 0.0636 1.035 0.0636
1708780408.0488 1.037 -0.032 0.0605 1.041 0.0605
1708780408.0570 1.043 -0.032 0.0559 1.047 0.0559
1708780408.0652 1.050 -0.031 0.0481 1.054 0.0481
1708780408.0728 1.056 -0.031 0.0450 1.060 0.0450
1708780408.0809 1.062 -0.031 0.0404 1.067 0.0404
1708780408.0887 1.068 -0.030 0.0341 1.072 0.0341
1708780408.0971 1.074 -0.030 0.0295 1.079 0.0295
1708780408.1053 1.081 -0.030 0.0248 1.086 0.0248
1708780408.1135 1.088 -0.030 0.0171 1.092 0.0171
1708780408.1212 1.094 -0.030 0.0093 1.099 0.0093
1708780408.1290 1.101 -0.030 0.0016 1.105 0.0016
1708780408.1372 1.107 -0.030 -0.0016 1.111 -0.0016
1708780408.1466 1.113 -0.030 -0.0078 1.117 -0.0078
1708780408.1526 1.120 -0.030 -0.0155 1.124 -0.0155
1708780408.1608 1.126 -0.030 -0.0233 1.130 -0.0233
1708780408.1686 1.131 -0.030 -0.0248 1.136 -0.0248
1708780408.1774 1.138 -0.030 -0.0264 1.142 -0.0264
1708780408.1854 1.145 -0.031 -0.0357 1.149 -0.0357
1708780408.1928 1.152 -0.031 -0.0497 1.156 -0.0497
1708780408.2010 1.157 -0.031 -0.0543 1.162 -0.0543
1708780408.2092 1.163 -0.031 -0.0559 1.167 -0.0559
1708780408.2170 1.169 -0.032 -0.0605 1.174 -0.0605
1708780408.2252 1.176 -0.032 -0.0683 1.181 -0.0683
1708780408.2332 1.183 -0.033 -0.0761 1.188 -0.0761
1708780408.2407 1.189 -0.033 -0.0807 1.194 -0.0807
1708780408.2488 1.195 -0.034 -0.0838 1.200 -0.0838
1708780408.2570 1.201 -0.034 -0.0885 1.206 -0.0885
1708780408.2651 1.208 -0.035 -0.0962 1.213 -0.0962
1708780408.2731 1.215 -0.036 -0.1009 1.220 -0.1009
1708780408.2813 1.222 -0.036 -0.1056 1.226 -0.1056
1708780408.2886 1.228 -0.037 -0.1087 1.232 -0.1087
1708780408.2968 1.234 -0.038 -0.1118 1.238 -0.1118
1708780408.3064 1.240 -0.038 -0.1180 1.245 -0.1180
1708780408.3131 1.246 -0.039 -0.1242 1.251 -0.1242
1708780408.3210 1.253 -0.040 -0.1273 1.258 -0.1273
1708780408.3292 1.259 -0.041 -0.1273 1.264 -0.1273
1708780408.3376 1.265 -0.041 -0.1257 1.270 -0.1257
1708780408.3447 1.271 -0.042 -0.1319 1.276 -0.1319
1708780408.3529 1.278 -0.043 -0.1350 1.283 -0.1350
1708780408.3614 1.284 -0.044 -0.1366 1.290 -0.1366
1708780408.3695 1.290 -0.045 -0.1350 1.295 -0.1350
1708780408.3766 1.297 -0.046 -0.1350 1.302 -0.1350
1708780408.3854 1.303 -0.047 -0.1366 1.309 -0.1366
1708780408.3931 1.309 -0.047 -0.1397 1.315 -0.1397
1708780408.4012 1.315 -0.048 -0.1397 1.321 -0.1397
1708780408.4087 1.321 -0.049 -0.1382 1.327 -0.1382
1708780408.4169 1.328 -0.050 -0.1382 1.333 -0.1382
1708780408.4250 1.334 -0.051 -0.1366 1.339 -0.1366
1708780408.4327 1.340 -0.052 -0.1366 1.346 -0.1366
1708780408.4415 1.347 -0.053 -0.1350 1.352 -0.1350
1708780408.4486 1.353 -0.054 -0.1319 1.359 -0.1319
1708780408.4575 1.359 -0.054 -0.1288 1.365 -0.1288
1708780408.4645 1.365 -0.055 -0.1288 1.371 -0.1288
1708780408.4727 1.372 -0.056 -0.1257 1.378 -0.1257
1708780408.4815 1.378 -0.057 -0.1226 1.384 -0.1226
1708780408.4892 1.384 -0.057 -0.1180 1.390 -0.1180
1708780408.4971 1.391 -0.058 -0.1180 1.397 -0.1180
1708780408.5048 1.397 -0.059 -0.1164 1.403 -0.1164
1708780408.5130 1.403 -0.060 -0.1118 1.410 -0.1118
1708780408.5212 1.410 -0.060 -0.1056 1.416 -0.1056
1708780408.5288 1.416 -0.061 -0.1024 1.423 -0.1024
1708780408.5377 1.423 -0.062 -0.1024 1.429 -0.1024
1708780408.5452 1.429 -0.062 -0.0978 1.435 -0.0978
1708780408.5526 1.435 -0.063 -0.0916 1.442 -0.0916
1708780408.5611 1.442 -0.064 -0.0885 1.448 -0.0885
1708780408.5693 1.448 -0.064 -0.0838 1.454 -0.0838
1708780408.5770 1.455 -0.065 -0.0761 1.461 -0.0761
1708780408.5851 1.462 -0.065 -0.0714 1.468 -0.0714
1708780408.5926 1.468 -0.066 -0.0714 1.474 -0.0714
1708780408.6014 1.473 -0.066 -0.0667 1.480 -0.0667
1708780408.6096 1.479 -0.066 -0.0574 1.486 -0.0574
1708780408.6167 1.486 -0.067 -0.0497 1.493 -0.0497
1708780408.6254 1.493 -0.067 -0.0512 1.500 -0.0512
1708780408.6334 1.499 -0.067 -0.0497 1.506 -0.0497
1708780408.6412 1.505 -0.068 -0.0419 1.512 -0.0419
1708780408.6489 1.512 -0.068 -0.0341 1.519 -0.0341
1708780408.6570 1.519 -0.068 -0.0310 1.525 -0.0310
1708780408.6651 1.525 -0.068 -0.0264 1.532 -0.0264
1708780408.6728 1.531 -0.068 -0.0217 1.537 -0.0217
1708780408.6815 1.537 -0.069 -0.0155 1.543 -0.0155
1708780408.6892 1.544 -0.069 -0.0109 1.550 -0.0109
1708780408.6969 1.551 -0.069 -0.0078 1.557 -0.0078
1708780408.7050 1.557 -0.069 -0.0031 1.563 -0.0031
1708780408.7131 1.562 -0.069 0.0016 1.569 0.0016
1708780408.7220 1.569 -0.069 0.0062 1.576 0.0062
1708780408.7291 1.576 -0.069 0.0109 1.583 0.0109
1708780408.7379 1.583 -0.069 0.0140 1.589 0.0140
1708780408.7446 1.588 -0.068 0.0202 1.595 0.0202
1708780408.7527 1.594 -0.068 0.0233 1.600 0.0233
1708780408.7609 1.600 -0.068 0.0233 1.607 0.0233
1708780408.7694 1.607 -0.068 0.0248 1.614 0.0248
1708780408.7765 1.614 -0.068 0.0310 1.621 0.0310
1708780408.7847 1.620 -0.068 0.0373 1.627 0.0373
1708780408.7935 1.626 -0.067 0.0404 1.633 0.0404
1708780408.8006 1.632 -0.067 0.0404 1.639 0.0404
1708780408.8091 1.639 -0.067 0.0435 1.646 0.0435
1708780408.8166 1.645 -0.067 0.0481 1.652 0.0481
1708780408.8250 1.651 -0.066 0.0481 1.658 0.0481
1708780408.8332 1.658 -0.066 0.0497 1.664 0.0497
1708780408.8416 1.664 -0.066 0.0528 1.671 0.0528
1708780408.8486 1.671 -0.065 0.0559 1.678 0.0559
1708780408.8566 1.678 -0.065 0.0590 1.685 0.0590
1708780408.8760 1.683 -0.065 0.0605 1.690 0.0605
1708780408.8777 1.689 -0.064 0.0621 1.696 0.0621
1708780408.8920 1.695 -0.064 0.0621 1.702 0.0621
1708780408.8951 1.700 -0.064 0.0605 1.707 0.0605
1708780408.8967 1.704 -0.063 0.0636 1.710 0.0636
1708780408.9048 1.709 -0.063 0.0667 1.716 0.0667
1708780408.9126 1.716 -0.063 0.0683 1.722 0.0683
1708780408.9207 1.721 -0.062 0.0683 1.728 0.0683
1708780408.9290 1.726 -0.062 0.0683 1.732 0.0683
1708780408.9374 1.731 -0.061 0.0683 1.738 0.0683
1708780408.9445 1.737 -0.061 0.0652 1.743 0.0652
1708780408.9526 1.742 -0.061 0.0605 1.749 0.0605
1708780408.9614 1.747 -0.060 0.0590 1.754 0.0590
1708780408.9685 1.752 -0.060 0.0621 1.759 0.0621
1708780408.9767 1.759 -0.060 0.0636 1.765 0.0636
1708780408.9856 1.764 -0.059 0.0590 1.771 0.0590
1708780408.9931 1.770 -0.059 0.0559 1.777 0.0559
1708780409.0013 1.776 -0.059 0.0543 1.783 0.0543
1708780409.0091 1.781 -0.058 0.0543 1.788 0.0543
1708780409.0172 1.786 -0.058 0.0512 1.793 0.0512
1708780409.0254 1.792 -0.058 0.0466 1.798 0.0466
1708780409.0331 1.797 -0.058 0.0450 1.804 0.0450
1708780409.0407 1.803 -0.057 0.0450 1.810 0.0450
1708780409.0489 1.810 -0.057 0.0450 1.816 0.0450
1708780409.0566 1.816 -0.057 0.0435 1.823 0.0435
1708780409.0647 1.822 -0.057 0.0404 1.829 0.0404
1708780409.0730 1.828 -0.056 0.0404 1.835 0.0404
1708780409.0816 1.835 -0.056 0.0404 1.841 0.0404
1708780409.0886 1.841 -0.056 0.0373 1.848 0.0373
1708780409.0969 1.848 -0.056 0.0341 1.855 0.0341
1708780409.1047 1.854 -0.055 0.0326 1.861 0.0326
1708780409.1128 1.860 -0.055 0.0326 1.867 0.0326
1708780409.1210 1.866 -0.055 0.0279 1.873 0.0279
1708780409.1295 1.873 -0.055 0.0248 1.880 0.0248
1708780409.1372 1.880 -0.055 0.0233 1.887 0.0233
1708780409.1454 1.886 -0.054 0.0233 1.893 0.0233
1708780409.1531 1.892 -0.054 0.0186 1.899 0.0186
1708780409.1613 1.899 -0.054 0.0124 1.906 0.0124
1708780409.1686 1.905 -0.054 0.0109 1.912 0.0109
1708780409.1780 1.911 -0.054 0.0124 1.918 0.0124
1708780409.1850 1.918 -0.054 0.0093 1.924 0.0093
1708780409.1928 1.924 -0.054 0.0047 1.931 0.0047
1708780409.2015 1.930 -0.054 -0.0000 1.937 -0.0000
1708780409.2085 1.936 -0.054 -0.0016 1.943 -0.0016
1708780409.2167 1.943 -0.054 -0.0031 1.950 -0.0031
1708780409.2254 1.950 -0.054 -0.0093 1.957 -0.0093
1708780409.2336 1.956 -0.054 -0.0124 1.963 -0.0124
1708780409.2413 1.962 -0.054 -0.0155 1.969 -0.0155
1708780409.2490 1.969 -0.054 -0.0202 1.976 -0.0202
1708780409.2571 1.975 -0.054 -0.0264 1.982 -0.0264
1708780409.2651 1.981 -0.055 -0.0295 1.988 -0.0295
1708780409.2728 1.988 -0.055 -0.0310 1.995 -0.0310
1708780409.2810 1.994 -0.055 -0.0373 2.001 -0.0373
1708780409.2887 2.000 -0.055 -0.0435 2.007 -0.0435
1708780409.2975 2.007 -0.056 -0.0466 2.014 -0.0466
1708780409.3045 2.013 -0.056 -0.0497 2.020 -0.0497
1708780409.3135 2.020 -0.056 -0.0512 2.027 -0.0512
1708780409.3212 2.026 -0.057 -0.0574 2.033 -0.0574
1708780409.3294 2.033 -0.057 -0.0621 2.040 -0.0621
1708780409.3382 2.039 -0.057 -0.0652 2.046 -0.0652
1708780409.3449 2.046 -0.058 -0.0652 2.053 -0.0652
1708780409.3649 2.062 -0.059 -0.0730 2.069 -0.0730
1708780409.3724 2.068 -0.059 -0.0761 2.075 -0.0761
1708780409.3801 2.074 -0.060 -0.0792 2.081 -0.0792
1708780409.3883 2.080 -0.060 -0.0823 2.088 -0.0823
1708780409.3960 2.088 -0.061 -0.0916 2.095 -0.0916
1708780409.4047 2.094 -0.062 -0.0900 2.101 -0.0900
1708780409.4120 2.100 -0.062 -0.0885 2.107 -0.0885
1708780409.4197 2.106 -0.063 -0.0947 2.114 -0.0947
1708780409.4285 2.112 -0.063 -0.0993 2.119 -0.0993
1708780409.4360 2.118 -0.064 -0.0962 2.125 -0.0962
1708780409.4444 2.124 -0.064 -0.0947 2.132 -0.0947
1708780409.4521 2.131 -0.065 -0.0978 2.139 -0.0978
1708780409.4605 2.138 -0.066 -0.1009 2.145 -0.1009
1708780409.4682 2.143 -0.066 -0.0993 2.151 -0.0993
1708780409.4759 2.150 -0.067 -0.0947 2.157 -0.0947
1708780409.4846 2.156 -0.068 -0.0962 2.164 -0.0962
1708780409.4919 2.163 -0.068 -0.0993 2.170 -0.0993
1708780409.5004 2.169 -0.069 -0.0993 2.176 -0.0993
1708780409.5080 2.175 -0.069 -0.0947 2.183 -0.0947
1708780409.5157 2.182 -0.070 -0.0931 2.189 -0.0931
1708780409.5245 2.188 -0.071 -0.0947 2.195 -0.0947
1708780409.5320 2.193 -0.071 -0.0947 2.201 -0.0947
1708780409.5403 2.200 -0.072 -0.0931 2.208 -0.0931
1708780409.5478 2.206 -0.072 -0.0931 2.214 -0.0931
1708780409.5565 2.213 -0.073 -0.0916 2.220 -0.0916
1708780409.5644 2.219 -0.073 -0.0885 2.226 -0.0885
1708780409.5722 2.225 -0.074 -0.0823 2.233 -0.0823
1708780409.5799 2.232 -0.075 -0.0807 2.240 -0.0807
1708780409.5883 2.238 -0.075 -0.0823 2.246 -0.0823
1708780409.5957 2.244 -0.076 -0.0792 2.252 -0.0792
1708780409.6044 2.250 -0.076 -0.0745 2.258 -0.0745
1708780409.6121 2.257 -0.077 -0.0714 2.265 -0.0714
1708780409.6198 2.264 -0.077 -0.0714 2.271 -0.0714
1708780409.6284 2.270 -0.077 -0.0699 2.278 -0.0699
1708780409.6359 2.275 -0.078 -0.0683 2.283 -0.0683
1708780409.6443 2.282 -0.078 -0.0621 2.290 -0.0621
1708780409.6518 2.289 -0.079 -0.0590 2.297 -0.0590
1708780409.6605 2.295 -0.079 -0.0590 2.303 -0.0590
1708780409.6682 2.301 -0.079 -0.0559 2.309 -0.0559
1708780409.6758 2.308 -0.080 -0.0512 2.316 -0.0512
1708780409.6839 2.314 -0.080 -0.0466 2.322 -0.0466
1708780409.6922 2.321 -0.080 -0.0435 2.329 -0.0435
1708780409.6998 2.327 -0.081 -0.0404 2.335 -0.0404
1708780409.7087 2.333 -0.081 -0.0388 2.341 -0.0388
1708780409.7164 2.340 -0.081 -0.0357 2.348 -0.0357
1708780409.7239 2.346 -0.081 -0.0310 2.354 -0.0310
1708780409.7324 2.353 -0.082 -0.0279 2.361 -0.0279
1708780409.7407 2.359 -0.082 -0.0233 2.367 -0.0233
1708780409.7483 2.365 -0.082 -0.0186 2.373 -0.0186
1708780409.7564 2.372 -0.082 -0.0155 2.380 -0.0155
1708780409.7641 2.379 -0.082 -0.0140 2.387 -0.0140
1708780409.7725 2.385 -0.082 -0.0093 2.393 -0.0093
1708780409.7801 2.390 -0.082 -0.0047 2.398 -0.0047
1708780409.7886 2.397 -0.082 -0.0000 2.405 -0.0000
1708780409.7961 2.404 -0.082 -0.0000 2.412 -0.0000
1708780409.8038 2.411 -0.082 -0.0000 2.419 -0.0000
1708780409.8125 2.416 -0.082 0.0047 2.424 0.0047
1708780409.8199 2.422 -0.082 0.0093 2.430 0.0093
1708780409.8279 2.429 -0.082 0.0140 2.437 0.0140
1708780409.8367 2.435 -0.082 0.0124 2.443 0.0124
