% Pose without folding and reset (log_20240224_122125.332/log_pose_abs.txt)
% 1 	Time (sec)
% 2,3 	Position x,y (m)
% 4 	heading (rad)
% 5 	Driven distance (m) - signed
% 6 	Turned angle (rad) - signed
1708773685.8215 0.000 0.000 0.0000 0.000 0.0000
1708773685.8292 0.000 0.000 0.0000 0.000 0.0000
1708773685.8369 0.000 0.000 0.0000 0.000 0.0000
1708773685.8447 0.000 0.000 0.0000 0.000 0.0000
1708773685.8534 0.000 0.000 0.0000 0.000 0.0000
1708773685.8606 0.000 0.000 0.0000 0.000 0.0000
1708773685.8685 0.000 0.000 0.0000 0.000 0.0000
1708773685.8773 0.000 0.000 0.0000 0.000 0.0000
1708773685.8848 0.000 0.000 0.0000 0.000 0.0000
1708773685.8927 0.000 0.000 0.0000 0.000 0.0000
1708773685.9023 0.000 0.000 0.0000 0.000 0.0000
1708773685.9095 0.000 0.000 0.0000 0.000 0.0000
1708773685.9173 0.000 0.000 0.0000 0.000 0.0000
1708773685.9280 0.000 0.000 0.0000 0.000 0.0000
1708773685.9332 0.000 0.000 0.0000 0.000 0.0000
1708773685.9420 0.000 0.000 0.0000 0.000 0.0000
1708773685.9500 0.001 0.000 0.0000 0.001 0.0000
1708773685.9578 0.003 0.000 0.0000 0.003 0.0000
1708773685.9657 0.004 0.000 0.0031 0.004 0.0031
1708773685.9740 0.004 0.000 0.0016 0.004 0.0016
1708773685.9812 0.005 0.000 0.0016 0.005 0.0016
1708773685.9890 0.006 0.000 0.0000 0.006 0.0000
1708773685.9978 0.008 0.000 0.0000 0.008 0.0000
1708773686.0053 0.009 0.000 -0.0016 0.009 -0.0016
1708773686.0131 0.010 0.000 -0.0016 0.010 -0.0016
1708773686.0216 0.012 -0.000 -0.0031 0.012 -0.0031
1708773686.0299 0.014 -0.000 -0.0031 0.014 -0.0031
1708773686.0377 0.016 -0.000 -0.0031 0.016 -0.0031
1708773686.0465 0.019 -0.000 -0.0047 0.019 -0.0047
1708773686.0531 0.021 -0.000 -0.0078 0.021 -0.0078
1708773686.0635 0.023 -0.000 -0.0062 0.023 -0.0062
1708773686.0698 0.025 -0.000 -0.0047 0.025 -0.0047
1708773686.0770 0.028 -0.000 -0.0078 0.028 -0.0078
1708773686.0854 0.030 -0.000 -0.0109 0.030 -0.0109
1708773686.0971 0.032 -0.000 -0.0109 0.032 -0.0109
1708773686.1040 0.035 -0.000 -0.0093 0.035 -0.0093
1708773686.1101 0.038 -0.000 -0.0078 0.038 -0.0078
1708773686.1184 0.041 -0.000 -0.0109 0.041 -0.0109
1708773686.1260 0.043 -0.000 -0.0124 0.043 -0.0124
1708773686.1339 0.045 -0.000 -0.0124 0.045 -0.0124
1708773686.1420 0.047 -0.000 -0.0124 0.047 -0.0124
1708773686.1499 0.050 -0.000 -0.0171 0.050 -0.0171
1708773686.1579 0.053 -0.000 -0.0202 0.053 -0.0202
1708773686.1661 0.055 -0.000 -0.0202 0.055 -0.0202
1708773686.1739 0.057 -0.000 -0.0202 0.057 -0.0202
1708773686.1817 0.060 -0.001 -0.0248 0.060 -0.0248
1708773686.1898 0.062 -0.001 -0.0310 0.062 -0.0310
1708773686.1978 0.065 -0.001 -0.0326 0.065 -0.0326
1708773686.2059 0.067 -0.001 -0.0295 0.067 -0.0295
1708773686.2142 0.069 -0.001 -0.0310 0.069 -0.0310
1708773686.2210 0.072 -0.001 -0.0373 0.072 -0.0373
1708773686.2299 0.074 -0.001 -0.0450 0.074 -0.0450
1708773686.2382 0.076 -0.001 -0.0435 0.076 -0.0435
1708773686.2459 0.078 -0.001 -0.0404 0.078 -0.0404
1708773686.2537 0.081 -0.001 -0.0404 0.081 -0.0404
1708773686.2626 0.084 -0.001 -0.0466 0.084 -0.0466
1708773686.2693 0.085 -0.001 -0.0512 0.085 -0.0512
1708773686.2779 0.088 -0.002 -0.0512 0.088 -0.0512
1708773686.2867 0.090 -0.002 -0.0497 0.090 -0.0497
1708773686.2933 0.093 -0.002 -0.0528 0.093 -0.0528
1708773686.3012 0.095 -0.002 -0.0574 0.095 -0.0574
1708773686.3101 0.097 -0.002 -0.0574 0.097 -0.0574
1708773686.3179 0.099 -0.002 -0.0559 0.099 -0.0559
1708773686.3258 0.102 -0.002 -0.0543 0.102 -0.0543
1708773686.3343 0.104 -0.003 -0.0605 0.104 -0.0605
1708773686.3410 0.107 -0.003 -0.0667 0.107 -0.0667
1708773686.3522 0.109 -0.003 -0.0636 0.109 -0.0636
1708773686.3583 0.111 -0.003 -0.0574 0.111 -0.0574
1708773686.3653 0.113 -0.003 -0.0512 0.113 -0.0512
1708773686.3732 0.115 -0.003 -0.0528 0.115 -0.0528
1708773686.3823 0.117 -0.003 -0.0636 0.117 -0.0636
1708773686.3893 0.120 -0.003 -0.0667 0.120 -0.0667
1708773686.3979 0.123 -0.004 -0.0636 0.123 -0.0636
1708773686.4058 0.125 -0.004 -0.0574 0.125 -0.0574
1708773686.4135 0.127 -0.004 -0.0590 0.127 -0.0590
1708773686.4212 0.129 -0.004 -0.0652 0.129 -0.0652
1708773686.4298 0.132 -0.004 -0.0683 0.132 -0.0683
1708773686.4375 0.134 -0.004 -0.0652 0.134 -0.0652
1708773686.4454 0.137 -0.005 -0.0636 0.137 -0.0636
1708773686.4544 0.139 -0.005 -0.0652 0.139 -0.0652
1708773686.4611 0.141 -0.005 -0.0699 0.141 -0.0699
1708773686.4698 0.144 -0.005 -0.0714 0.144 -0.0714
1708773686.4788 0.146 -0.005 -0.0683 0.146 -0.0683
1708773686.4853 0.148 -0.005 -0.0605 0.148 -0.0605
1708773686.4935 0.151 -0.005 -0.0636 0.151 -0.0636
1708773686.5025 0.153 -0.006 -0.0699 0.153 -0.0699
1708773686.5091 0.155 -0.006 -0.0699 0.156 -0.0699
1708773686.5171 0.158 -0.006 -0.0667 0.158 -0.0667
1708773686.5262 0.160 -0.006 -0.0636 0.160 -0.0636
1708773686.5334 0.162 -0.006 -0.0652 0.162 -0.0652
1708773686.5413 0.165 -0.006 -0.0699 0.165 -0.0699
1708773686.5502 0.168 -0.007 -0.0683 0.168 -0.0683
1708773686.5571 0.170 -0.007 -0.0621 0.170 -0.0621
1708773686.5653 0.172 -0.007 -0.0621 0.172 -0.0621
1708773686.5749 0.174 -0.007 -0.0652 0.174 -0.0652
1708773686.5815 0.177 -0.007 -0.0683 0.177 -0.0683
1708773686.5897 0.180 -0.007 -0.0667 0.180 -0.0667
1708773686.5983 0.182 -0.008 -0.0621 0.182 -0.0621
1708773686.6059 0.184 -0.008 -0.0574 0.184 -0.0574
1708773686.6138 0.186 -0.008 -0.0574 0.186 -0.0574
1708773686.6217 0.189 -0.008 -0.0574 0.189 -0.0574
1708773686.6294 0.192 -0.008 -0.0574 0.192 -0.0574
1708773686.6373 0.194 -0.008 -0.0559 0.194 -0.0559
1708773686.6463 0.196 -0.008 -0.0543 0.196 -0.0543
1708773686.6538 0.198 -0.008 -0.0512 0.198 -0.0512
1708773686.6617 0.201 -0.009 -0.0497 0.201 -0.0497
1708773686.6707 0.204 -0.009 -0.0512 0.204 -0.0512
1708773686.6779 0.206 -0.009 -0.0528 0.206 -0.0528
1708773686.6860 0.208 -0.009 -0.0497 0.208 -0.0497
1708773686.6959 0.210 -0.009 -0.0435 0.210 -0.0435
1708773686.7015 0.213 -0.009 -0.0419 0.213 -0.0419
1708773686.7093 0.215 -0.009 -0.0435 0.215 -0.0435
1708773686.7185 0.217 -0.009 -0.0466 0.217 -0.0466
1708773686.7251 0.219 -0.009 -0.0450 0.219 -0.0450
1708773686.7338 0.222 -0.010 -0.0419 0.222 -0.0419
1708773686.7427 0.225 -0.010 -0.0419 0.225 -0.0419
1708773686.7493 0.227 -0.010 -0.0419 0.227 -0.0419
1708773686.7580 0.229 -0.010 -0.0419 0.229 -0.0419
1708773686.7660 0.231 -0.010 -0.0404 0.231 -0.0404
1708773686.7740 0.234 -0.010 -0.0419 0.234 -0.0419
1708773686.7845 0.237 -0.010 -0.0419 0.237 -0.0419
1708773686.7897 0.239 -0.010 -0.0419 0.240 -0.0419
1708773686.7973 0.241 -0.010 -0.0388 0.242 -0.0388
1708773686.8055 0.242 -0.010 -0.0388 0.243 -0.0388
1708773686.8143 0.245 -0.011 -0.0388 0.245 -0.0388
1708773686.8210 0.248 -0.011 -0.0388 0.248 -0.0388
1708773686.8294 0.251 -0.011 -0.0388 0.251 -0.0388
1708773686.8383 0.253 -0.011 -0.0373 0.253 -0.0373
1708773686.8450 0.254 -0.011 -0.0357 0.254 -0.0357
1708773686.8533 0.256 -0.011 -0.0357 0.257 -0.0357
1708773686.8624 0.259 -0.011 -0.0357 0.260 -0.0357
1708773686.8690 0.262 -0.011 -0.0357 0.263 -0.0357
1708773686.8779 0.264 -0.011 -0.0357 0.265 -0.0357
1708773686.8866 0.266 -0.011 -0.0341 0.266 -0.0341
1708773686.8940 0.268 -0.011 -0.0326 0.268 -0.0326
1708773686.9019 0.271 -0.011 -0.0341 0.271 -0.0341
1708773686.9101 0.274 -0.012 -0.0357 0.274 -0.0357
1708773686.9170 0.276 -0.012 -0.0357 0.276 -0.0357
1708773686.9259 0.278 -0.012 -0.0341 0.278 -0.0341
1708773686.9346 0.279 -0.012 -0.0341 0.280 -0.0341
1708773686.9412 0.282 -0.012 -0.0357 0.282 -0.0357
1708773686.9491 0.285 -0.012 -0.0373 0.286 -0.0373
1708773686.9587 0.287 -0.012 -0.0341 0.288 -0.0341
1708773686.9651 0.289 -0.012 -0.0310 0.289 -0.0310
1708773686.9740 0.291 -0.012 -0.0310 0.292 -0.0310
1708773686.9818 0.294 -0.012 -0.0326 0.294 -0.0326
1708773686.9894 0.297 -0.012 -0.0357 0.297 -0.0357
1708773686.9977 0.299 -0.012 -0.0341 0.299 -0.0341
1708773687.0066 0.301 -0.012 -0.0326 0.301 -0.0326
1708773687.0130 0.303 -0.013 -0.0295 0.303 -0.0295
1708773687.0220 0.306 -0.013 -0.0310 0.306 -0.0310
1708773687.0305 0.308 -0.013 -0.0326 0.309 -0.0326
1708773687.0371 0.310 -0.013 -0.0341 0.311 -0.0341
1708773687.0452 0.313 -0.013 -0.0310 0.313 -0.0310
1708773687.0540 0.315 -0.013 -0.0279 0.316 -0.0279
1708773687.0617 0.318 -0.013 -0.0310 0.318 -0.0310
1708773687.0697 0.320 -0.013 -0.0341 0.321 -0.0341
1708773687.0791 0.322 -0.013 -0.0326 0.323 -0.0326
1708773687.0857 0.325 -0.013 -0.0264 0.325 -0.0264
1708773687.0936 0.327 -0.013 -0.0248 0.328 -0.0248
1708773687.1022 0.330 -0.013 -0.0295 0.330 -0.0295
1708773687.1099 0.332 -0.013 -0.0341 0.332 -0.0341
1708773687.1178 0.334 -0.014 -0.0310 0.335 -0.0310
1708773687.1259 0.337 -0.014 -0.0264 0.337 -0.0264
1708773687.1332 0.339 -0.014 -0.0233 0.340 -0.0233
1708773687.1410 0.342 -0.014 -0.0264 0.342 -0.0264
1708773687.1504 0.344 -0.014 -0.0295 0.344 -0.0295
1708773687.1570 0.346 -0.014 -0.0295 0.346 -0.0295
1708773687.1653 0.349 -0.014 -0.0279 0.349 -0.0279
1708773687.1743 0.351 -0.014 -0.0264 0.352 -0.0264
1708773687.1815 0.353 -0.014 -0.0264 0.354 -0.0264
1708773687.1892 0.355 -0.014 -0.0279 0.356 -0.0279
1708773687.1978 0.358 -0.014 -0.0295 0.359 -0.0295
1708773687.2054 0.361 -0.014 -0.0310 0.361 -0.0310
1708773687.2143 0.363 -0.014 -0.0279 0.364 -0.0279
1708773687.2256 0.365 -0.014 -0.0248 0.366 -0.0248
1708773687.2297 0.368 -0.014 -0.0264 0.368 -0.0264
1708773687.2375 0.370 -0.015 -0.0279 0.371 -0.0279
1708773687.2464 0.372 -0.015 -0.0264 0.372 -0.0264
1708773687.2540 0.373 -0.015 -0.0248 0.374 -0.0248
1708773687.2619 0.376 -0.015 -0.0233 0.376 -0.0233
1708773687.2698 0.379 -0.015 -0.0233 0.379 -0.0233
1708773687.2775 0.382 -0.015 -0.0248 0.382 -0.0248
1708773687.2855 0.384 -0.015 -0.0248 0.384 -0.0248
1708773687.2946 0.385 -0.015 -0.0233 0.386 -0.0233
1708773687.3013 0.388 -0.015 -0.0217 0.388 -0.0217
1708773687.3093 0.391 -0.015 -0.0217 0.391 -0.0217
1708773687.3184 0.393 -0.015 -0.0233 0.393 -0.0233
1708773687.3260 0.395 -0.015 -0.0233 0.395 -0.0233
1708773687.3335 0.397 -0.015 -0.0233 0.397 -0.0233
1708773687.3429 0.400 -0.015 -0.0217 0.400 -0.0217
1708773687.3494 0.403 -0.015 -0.0233 0.403 -0.0233
1708773687.3576 0.405 -0.015 -0.0233 0.405 -0.0233
1708773687.3666 0.406 -0.015 -0.0217 0.407 -0.0217
1708773687.3731 0.409 -0.015 -0.0202 0.409 -0.0202
1708773687.3810 0.412 -0.015 -0.0217 0.412 -0.0217
1708773687.3906 0.414 -0.016 -0.0217 0.414 -0.0217
1708773687.3979 0.416 -0.016 -0.0217 0.416 -0.0217
1708773687.4051 0.418 -0.016 -0.0233 0.419 -0.0233
1708773687.4139 0.421 -0.016 -0.0233 0.421 -0.0233
1708773687.4216 0.423 -0.016 -0.0217 0.424 -0.0217
1708773687.4294 0.426 -0.016 -0.0233 0.426 -0.0233
1708773687.4391 0.428 -0.016 -0.0264 0.428 -0.0264
1708773687.4457 0.430 -0.016 -0.0279 0.430 -0.0279
1708773687.4537 0.432 -0.016 -0.0264 0.433 -0.0264
1708773687.4625 0.435 -0.016 -0.0217 0.435 -0.0217
1708773687.4692 0.437 -0.016 -0.0217 0.437 -0.0217
1708773687.4778 0.439 -0.016 -0.0248 0.439 -0.0248
1708773687.4856 0.442 -0.016 -0.0264 0.442 -0.0264
1708773687.4933 0.444 -0.016 -0.0248 0.445 -0.0248
1708773687.5013 0.447 -0.016 -0.0217 0.447 -0.0217
1708773687.5103 0.448 -0.016 -0.0186 0.449 -0.0186
1708773687.5180 0.451 -0.016 -0.0217 0.451 -0.0217
1708773687.5250 0.453 -0.016 -0.0248 0.454 -0.0248
1708773687.5342 0.456 -0.017 -0.0248 0.456 -0.0248
1708773687.5412 0.458 -0.017 -0.0202 0.458 -0.0202
1708773687.5499 0.460 -0.017 -0.0202 0.461 -0.0202
1708773687.5578 0.463 -0.017 -0.0217 0.463 -0.0217
1708773687.5655 0.466 -0.017 -0.0248 0.466 -0.0248
1708773687.5734 0.468 -0.017 -0.0217 0.468 -0.0217
1708773687.5820 0.470 -0.017 -0.0202 0.471 -0.0202
1708773687.5897 0.472 -0.017 -0.0217 0.473 -0.0217
1708773687.5975 0.475 -0.017 -0.0233 0.475 -0.0233
1708773687.6063 0.478 -0.017 -0.0248 0.478 -0.0248
1708773687.6131 0.480 -0.017 -0.0217 0.481 -0.0217
1708773687.6213 0.482 -0.017 -0.0217 0.482 -0.0217
1708773687.6299 0.484 -0.017 -0.0233 0.485 -0.0233
1708773687.6374 0.487 -0.017 -0.0264 0.487 -0.0264
1708773687.6462 0.490 -0.017 -0.0264 0.490 -0.0264
1708773687.6541 0.492 -0.017 -0.0248 0.493 -0.0248
1708773687.6619 0.494 -0.017 -0.0217 0.495 -0.0217
1708773687.6692 0.496 -0.017 -0.0248 0.497 -0.0248
1708773687.6789 0.499 -0.017 -0.0248 0.499 -0.0248
1708773687.6853 0.502 -0.018 -0.0217 0.502 -0.0217
1708773687.6939 0.504 -0.018 -0.0217 0.505 -0.0217
1708773687.7018 0.506 -0.018 -0.0233 0.506 -0.0233
1708773687.7098 0.508 -0.018 -0.0233 0.509 -0.0233
1708773687.7176 0.511 -0.018 -0.0248 0.511 -0.0248
1708773687.7265 0.514 -0.018 -0.0264 0.514 -0.0264
1708773687.7340 0.516 -0.018 -0.0233 0.517 -0.0233
1708773687.7419 0.518 -0.018 -0.0217 0.518 -0.0217
1708773687.7499 0.520 -0.018 -0.0248 0.521 -0.0248
1708773687.7575 0.523 -0.018 -0.0279 0.523 -0.0279
1708773687.7654 0.525 -0.018 -0.0248 0.526 -0.0248
1708773687.7742 0.528 -0.018 -0.0217 0.528 -0.0217
1708773687.7818 0.530 -0.018 -0.0233 0.530 -0.0233
1708773687.7891 0.532 -0.018 -0.0279 0.533 -0.0279
1708773687.7980 0.535 -0.018 -0.0279 0.536 -0.0279
1708773687.8058 0.537 -0.018 -0.0233 0.538 -0.0233
1708773687.8136 0.540 -0.018 -0.0217 0.540 -0.0217
1708773687.8223 0.542 -0.019 -0.0264 0.543 -0.0264
1708773687.8297 0.545 -0.019 -0.0310 0.545 -0.0310
1708773687.8375 0.547 -0.019 -0.0295 0.547 -0.0295
1708773687.8458 0.549 -0.019 -0.0233 0.549 -0.0233
1708773687.8535 0.551 -0.019 -0.0217 0.552 -0.0217
1708773687.8614 0.554 -0.019 -0.0264 0.555 -0.0264
1708773687.8707 0.556 -0.019 -0.0310 0.557 -0.0310
1708773687.8780 0.559 -0.019 -0.0310 0.559 -0.0310
1708773687.8858 0.561 -0.019 -0.0279 0.562 -0.0279
1708773687.8944 0.564 -0.019 -0.0279 0.564 -0.0279
1708773687.9010 0.566 -0.019 -0.0295 0.567 -0.0295
1708773687.9098 0.569 -0.019 -0.0326 0.569 -0.0326
1708773687.9181 0.570 -0.019 -0.0357 0.571 -0.0357
1708773687.9250 0.573 -0.019 -0.0326 0.574 -0.0326
1708773687.9335 0.576 -0.020 -0.0310 0.576 -0.0310
1708773687.9424 0.578 -0.020 -0.0326 0.579 -0.0326
1708773687.9491 0.580 -0.020 -0.0357 0.581 -0.0357
1708773687.9579 0.583 -0.020 -0.0357 0.583 -0.0357
1708773687.9657 0.585 -0.020 -0.0341 0.586 -0.0341
1708773687.9735 0.588 -0.020 -0.0341 0.588 -0.0341
1708773687.9813 0.590 -0.020 -0.0341 0.590 -0.0341
1708773687.9902 0.592 -0.020 -0.0357 0.592 -0.0357
1708773687.9978 0.595 -0.020 -0.0357 0.595 -0.0357
1708773688.0051 0.597 -0.020 -0.0357 0.598 -0.0357
1708773688.0150 0.599 -0.020 -0.0341 0.600 -0.0341
1708773688.0215 0.601 -0.020 -0.0357 0.601 -0.0357
1708773688.0290 0.603 -0.020 -0.0388 0.603 -0.0388
1708773688.0381 0.606 -0.021 -0.0388 0.606 -0.0388
1708773688.0451 0.609 -0.021 -0.0357 0.609 -0.0357
1708773688.0530 0.611 -0.021 -0.0373 0.612 -0.0373
1708773688.0726 0.613 -0.021 -0.0388 0.614 -0.0388
1708773688.0821 0.615 -0.021 -0.0404 0.615 -0.0404
1708773688.0873 0.617 -0.021 -0.0404 0.617 -0.0404
1708773688.0916 0.620 -0.021 -0.0373 0.620 -0.0373
1708773688.0944 0.624 -0.021 -0.0357 0.624 -0.0357
1708773688.1013 0.626 -0.021 -0.0404 0.627 -0.0404
1708773688.1097 0.626 -0.021 -0.0404 0.627 -0.0404
1708773688.1174 0.627 -0.021 -0.0419 0.627 -0.0419
1708773688.1254 0.628 -0.021 -0.0435 0.629 -0.0435
1708773688.1339 0.631 -0.022 -0.0435 0.631 -0.0435
1708773688.1416 0.634 -0.022 -0.0373 0.634 -0.0373
1708773688.1495 0.636 -0.022 -0.0341 0.636 -0.0341
1708773688.1587 0.637 -0.022 -0.0341 0.637 -0.0341
1708773688.1656 0.639 -0.022 -0.0388 0.639 -0.0388
1708773688.1735 0.641 -0.022 -0.0404 0.642 -0.0404
1708773688.1826 0.643 -0.022 -0.0373 0.644 -0.0373
1708773688.1893 0.645 -0.022 -0.0326 0.646 -0.0326
1708773688.1979 0.648 -0.022 -0.0341 0.648 -0.0341
1708773688.2057 0.649 -0.022 -0.0373 0.650 -0.0373
1708773688.2135 0.652 -0.022 -0.0388 0.652 -0.0388
1708773688.2213 0.654 -0.022 -0.0373 0.654 -0.0373
1708773688.2307 0.656 -0.022 -0.0295 0.656 -0.0295
1708773688.2373 0.658 -0.023 -0.0310 0.658 -0.0310
1708773688.2458 0.660 -0.023 -0.0357 0.660 -0.0357
1708773688.2537 0.662 -0.023 -0.0341 0.662 -0.0341
1708773688.2614 0.664 -0.023 -0.0279 0.665 -0.0279
1708773688.2691 0.666 -0.023 -0.0279 0.667 -0.0279
1708773688.2789 0.669 -0.023 -0.0310 0.669 -0.0310
1708773688.2855 0.671 -0.023 -0.0295 0.672 -0.0295
1708773688.2935 0.673 -0.023 -0.0264 0.674 -0.0264
1708773688.3026 0.675 -0.023 -0.0248 0.676 -0.0248
1708773688.3093 0.677 -0.023 -0.0248 0.678 -0.0248
1708773688.3176 0.680 -0.023 -0.0233 0.680 -0.0233
1708773688.3266 0.682 -0.023 -0.0233 0.683 -0.0233
1708773688.3330 0.684 -0.023 -0.0217 0.685 -0.0217
1708773688.3415 0.687 -0.023 -0.0217 0.687 -0.0217
1708773688.3504 0.689 -0.023 -0.0217 0.690 -0.0217
1708773688.3579 0.691 -0.023 -0.0202 0.692 -0.0202
1708773688.3659 0.694 -0.023 -0.0186 0.694 -0.0186
1708773688.3740 0.696 -0.024 -0.0186 0.697 -0.0186
1708773688.3817 0.698 -0.024 -0.0186 0.699 -0.0186
1708773688.3891 0.701 -0.024 -0.0171 0.701 -0.0171
1708773688.3982 0.703 -0.024 -0.0155 0.704 -0.0155
1708773688.4057 0.706 -0.024 -0.0171 0.707 -0.0171
1708773688.4137 0.708 -0.024 -0.0171 0.709 -0.0171
1708773688.4227 0.710 -0.024 -0.0124 0.711 -0.0124
1708773688.4290 0.712 -0.024 -0.0124 0.713 -0.0124
1708773688.4380 0.715 -0.024 -0.0109 0.716 -0.0109
1708773688.4467 0.718 -0.024 -0.0093 0.718 -0.0093
1708773688.4531 0.720 -0.024 -0.0078 0.720 -0.0078
1708773688.4611 0.722 -0.024 -0.0093 0.723 -0.0093
1708773688.4702 0.725 -0.024 -0.0124 0.725 -0.0124
1708773688.4775 0.727 -0.024 -0.0109 0.728 -0.0109
1708773688.4853 0.730 -0.024 -0.0078 0.730 -0.0078
1708773688.4937 0.732 -0.024 -0.0062 0.733 -0.0062
1708773688.5016 0.734 -0.024 -0.0093 0.735 -0.0093
1708773688.5098 0.737 -0.024 -0.0140 0.738 -0.0140
1708773688.5181 0.740 -0.024 -0.0140 0.740 -0.0140
1708773688.5254 0.742 -0.024 -0.0078 0.743 -0.0078
1708773688.5332 0.744 -0.024 -0.0047 0.745 -0.0047
1708773688.5423 0.747 -0.024 -0.0109 0.747 -0.0109
1708773688.5492 0.749 -0.024 -0.0171 0.749 -0.0171
1708773688.5575 0.751 -0.024 -0.0155 0.752 -0.0155
1708773688.5663 0.754 -0.024 -0.0093 0.754 -0.0093
1708773688.5731 0.756 -0.024 -0.0062 0.756 -0.0062
1708773688.5820 0.758 -0.024 -0.0093 0.759 -0.0093
1708773688.5902 0.761 -0.024 -0.0155 0.761 -0.0155
1708773688.5980 0.763 -0.024 -0.0171 0.764 -0.0171
1708773688.6052 0.765 -0.024 -0.0140 0.766 -0.0140
1708773688.6145 0.768 -0.024 -0.0109 0.768 -0.0109
1708773688.6213 0.770 -0.024 -0.0124 0.771 -0.0124
1708773688.6292 0.773 -0.024 -0.0186 0.773 -0.0186
1708773688.6385 0.775 -0.024 -0.0202 0.775 -0.0202
1708773688.6452 0.777 -0.025 -0.0171 0.777 -0.0171
1708773688.6538 0.779 -0.025 -0.0140 0.780 -0.0140
1708773688.6619 0.782 -0.025 -0.0155 0.782 -0.0155
1708773688.6698 0.784 -0.025 -0.0217 0.785 -0.0217
1708773688.6773 0.787 -0.025 -0.0233 0.787 -0.0233
1708773688.6866 0.789 -0.025 -0.0202 0.789 -0.0202
1708773688.6933 0.791 -0.025 -0.0171 0.792 -0.0171
1708773688.7013 0.794 -0.025 -0.0202 0.795 -0.0202
1708773688.7105 0.796 -0.025 -0.0264 0.796 -0.0264
1708773688.7174 0.798 -0.025 -0.0248 0.799 -0.0248
1708773688.7292 0.801 -0.025 -0.0217 0.801 -0.0217
1708773688.7343 0.803 -0.025 -0.0248 0.804 -0.0248
1708773688.7410 0.806 -0.025 -0.0248 0.806 -0.0248
1708773688.7492 0.808 -0.025 -0.0264 0.808 -0.0264
1708773688.7586 0.809 -0.025 -0.0233 0.810 -0.0233
1708773688.7655 0.812 -0.025 -0.0248 0.812 -0.0248
1708773688.7735 0.815 -0.025 -0.0264 0.815 -0.0264
1708773688.7865 0.817 -0.025 -0.0264 0.818 -0.0264
1708773688.7899 0.819 -0.025 -0.0279 0.819 -0.0279
1708773688.7977 0.820 -0.026 -0.0279 0.821 -0.0279
1708773688.8067 0.822 -0.026 -0.0248 0.822 -0.0248
1708773688.8134 0.824 -0.026 -0.0248 0.825 -0.0248
1708773688.8211 0.827 -0.026 -0.0279 0.828 -0.0279
1708773688.8302 0.830 -0.026 -0.0295 0.830 -0.0295
1708773688.8379 0.832 -0.026 -0.0279 0.832 -0.0279
1708773688.8458 0.834 -0.026 -0.0264 0.834 -0.0264
1708773688.8536 0.836 -0.026 -0.0279 0.837 -0.0279
1708773688.8613 0.839 -0.026 -0.0326 0.839 -0.0326
1708773688.8690 0.841 -0.026 -0.0310 0.842 -0.0310
1708773688.8786 0.843 -0.026 -0.0264 0.844 -0.0264
1708773688.8855 0.846 -0.026 -0.0279 0.846 -0.0279
1708773688.8930 0.848 -0.026 -0.0310 0.849 -0.0310
1708773688.9021 0.850 -0.026 -0.0310 0.851 -0.0310
1708773688.9098 0.852 -0.026 -0.0295 0.853 -0.0295
1708773688.9176 0.855 -0.026 -0.0295 0.855 -0.0295
1708773688.9267 0.857 -0.027 -0.0295 0.858 -0.0295
