% Pose without folding and reset (log_20240224_121814.015/log_pose_abs.txt)
% 1 	Time (sec)
% 2,3 	Position x,y (m)
% 4 	heading (rad)
% 5 	Driven distance (m) - signed
% 6 	Turned angle (rad) - signed
1708773494.9960 0.000 0.000 0.0000 0.000 0.0000
1708773495.0033 0.000 0.000 0.0000 0.000 0.0000
1708773495.0104 -0.000 -0.000 0.0016 -0.000 0.0016
1708773495.0190 -0.000 -0.000 0.0016 -0.000 0.0016
1708773495.0269 -0.000 -0.000 0.0016 -0.000 0.0016
1708773495.0349 -0.000 -0.000 0.0016 -0.000 0.0016
1708773495.0425 -0.000 -0.000 0.0016 -0.000 0.0016
1708773495.0510 -0.000 -0.000 0.0016 -0.000 0.0016
1708773495.0588 -0.000 -0.000 0.0016 -0.000 0.0016
1708773495.0674 -0.000 -0.000 0.0016 -0.000 0.0016
1708773495.0747 -0.000 -0.000 0.0016 -0.000 0.0016
1708773495.0829 -0.000 -0.000 0.0016 -0.000 0.0016
1708773495.0909 -0.000 -0.000 0.0016 -0.000 0.0016
1708773495.0992 -0.000 -0.000 0.0016 -0.000 0.0016
1708773495.1068 0.000 0.000 0.0000 0.000 0.0000
1708773495.1155 0.000 0.000 0.0031 0.000 0.0031
1708773495.1226 0.002 0.000 0.0031 0.002 0.0031
1708773495.1308 0.004 0.000 0.0016 0.004 0.0016
1708773495.1391 0.005 0.000 -0.0016 0.005 -0.0016
1708773495.1471 0.006 0.000 -0.0016 0.006 -0.0016
1708773495.1549 0.007 0.000 -0.0016 0.007 -0.0016
1708773495.1627 0.009 0.000 -0.0016 0.009 -0.0016
1708773495.1708 0.010 0.000 -0.0016 0.010 -0.0016
1708773495.1791 0.012 -0.000 -0.0031 0.012 -0.0031
1708773495.1868 0.014 -0.000 -0.0016 0.014 -0.0016
1708773495.1948 0.016 -0.000 -0.0016 0.016 -0.0016
1708773495.2027 0.019 -0.000 -0.0031 0.019 -0.0031
1708773495.2115 0.021 -0.000 -0.0016 0.021 -0.0016
1708773495.2187 0.023 -0.000 0.0000 0.023 0.0000
1708773495.2269 0.026 -0.000 -0.0016 0.026 -0.0016
1708773495.2356 0.028 -0.000 -0.0047 0.028 -0.0047
1708773495.2427 0.030 -0.000 -0.0047 0.030 -0.0047
1708773495.2516 0.033 -0.000 0.0000 0.033 0.0000
1708773495.2594 0.035 -0.000 0.0016 0.035 0.0016
1708773495.2675 0.038 -0.000 0.0000 0.038 0.0000
1708773495.2747 0.040 -0.000 -0.0047 0.040 -0.0047
1708773495.2834 0.042 -0.000 -0.0047 0.042 -0.0047
1708773495.2916 0.045 -0.000 0.0016 0.045 0.0016
1708773495.2988 0.048 -0.000 0.0031 0.048 0.0031
1708773495.3073 0.050 -0.000 0.0016 0.050 0.0016
1708773495.3155 0.052 -0.000 0.0000 0.052 0.0000
1708773495.3227 0.055 -0.000 0.0000 0.055 0.0000
1708773495.3313 0.057 -0.000 0.0000 0.057 0.0000
1708773495.3395 0.060 -0.000 0.0000 0.060 0.0000
1708773495.3467 0.062 -0.000 0.0016 0.062 0.0016
1708773495.3552 0.064 -0.000 0.0000 0.064 0.0000
1708773495.3634 0.067 -0.000 -0.0047 0.067 -0.0047
1708773495.3715 0.069 -0.000 -0.0047 0.069 -0.0047
1708773495.3793 0.072 -0.000 -0.0016 0.072 -0.0016
1708773495.3875 0.074 -0.000 0.0031 0.074 0.0031
1708773495.3947 0.076 -0.000 0.0031 0.076 0.0031
1708773495.4032 0.078 -0.000 -0.0031 0.078 -0.0031
1708773495.4114 0.081 -0.000 -0.0047 0.081 -0.0047
1708773495.4195 0.084 -0.000 -0.0031 0.084 -0.0031
1708773495.4274 0.086 -0.000 0.0000 0.086 0.0000
1708773495.4356 0.088 -0.000 0.0000 0.088 0.0000
1708773495.4428 0.091 -0.000 0.0000 0.091 0.0000
1708773495.4513 0.093 -0.000 -0.0016 0.093 -0.0016
1708773495.4604 0.095 -0.000 -0.0031 0.095 -0.0031
1708773495.4676 0.097 -0.000 -0.0016 0.097 -0.0016
1708773495.4754 0.100 -0.000 0.0016 0.100 0.0016
1708773495.4836 0.103 -0.000 0.0016 0.103 0.0016
1708773495.4915 0.105 -0.000 -0.0016 0.105 -0.0016
1708773495.4993 0.107 -0.000 -0.0047 0.107 -0.0047
1708773495.5070 0.109 -0.000 -0.0000 0.109 -0.0000
1708773495.5153 0.112 -0.000 0.0031 0.112 0.0031
1708773495.5231 0.115 -0.000 0.0031 0.115 0.0031
1708773495.5313 0.117 -0.000 -0.0016 0.117 -0.0016
1708773495.5396 0.119 -0.000 -0.0000 0.119 -0.0000
1708773495.5475 0.121 -0.000 0.0062 0.121 0.0062
1708773495.5550 0.124 -0.000 0.0062 0.124 0.0062
1708773495.5633 0.127 -0.000 0.0031 0.127 0.0031
1708773495.5710 0.129 -0.000 0.0016 0.129 0.0016
1708773495.5793 0.131 -0.000 0.0031 0.131 0.0031
1708773495.5875 0.133 -0.000 0.0047 0.133 0.0047
1708773495.5952 0.136 -0.000 0.0047 0.136 0.0047
1708773495.6030 0.139 -0.000 0.0016 0.139 0.0016
1708773495.6113 0.141 -0.000 0.0031 0.141 0.0031
1708773495.6190 0.143 -0.000 0.0031 0.143 0.0031
1708773495.6272 0.145 0.000 0.0047 0.145 0.0047
1708773495.6354 0.148 0.000 0.0031 0.148 0.0031
1708773495.6430 0.151 0.000 0.0031 0.151 0.0031
1708773495.6519 0.152 0.000 0.0031 0.152 0.0031
1708773495.6592 0.154 0.000 0.0016 0.154 0.0016
1708773495.6671 0.157 0.000 -0.0000 0.157 -0.0000
1708773495.6752 0.160 0.000 0.0016 0.160 0.0016
1708773495.6835 0.162 0.000 0.0031 0.162 0.0031
1708773495.6914 0.164 0.000 0.0047 0.164 0.0047
1708773495.6987 0.167 0.000 0.0031 0.167 0.0031
1708773495.7067 0.170 0.000 0.0016 0.170 0.0016
1708773495.7156 0.171 0.000 0.0016 0.171 0.0016
1708773495.7228 0.174 0.000 0.0031 0.174 0.0031
1708773495.7309 0.176 0.000 0.0047 0.176 0.0047
1708773495.7386 0.179 0.000 0.0000 0.179 0.0000
1708773495.7469 0.181 0.000 -0.0016 0.181 -0.0016
1708773495.7548 0.183 0.000 0.0031 0.183 0.0031
1708773495.7637 0.185 0.000 0.0047 0.185 0.0047
1708773495.7709 0.188 0.000 0.0016 0.188 0.0016
1708773495.7790 0.190 0.000 -0.0016 0.190 -0.0016
1708773495.7868 0.192 0.000 0.0016 0.192 0.0016
1708773495.7950 0.194 0.000 0.0016 0.194 0.0016
1708773495.8028 0.197 0.000 0.0000 0.197 0.0000
1708773495.8106 0.199 0.000 -0.0016 0.199 -0.0016
1708773495.8198 0.202 0.000 0.0031 0.202 0.0031
1708773495.8270 0.204 0.000 0.0078 0.204 0.0078
1708773495.8347 0.207 0.000 0.0047 0.207 0.0047
1708773495.8431 0.210 0.000 0.0016 0.210 0.0016
1708773495.8509 0.212 0.000 0.0047 0.212 0.0047
1708773495.8587 0.215 0.000 0.0093 0.215 0.0093
1708773495.8669 0.217 0.000 0.0093 0.217 0.0093
1708773495.8752 0.220 0.000 0.0062 0.220 0.0062
1708773495.8830 0.223 0.000 0.0062 0.223 0.0062
1708773495.8912 0.225 0.000 0.0093 0.225 0.0093
1708773495.8995 0.227 0.000 0.0140 0.227 0.0140
1708773495.9070 0.230 0.000 0.0124 0.230 0.0124
1708773495.9150 0.233 0.000 0.0109 0.233 0.0109
1708773495.9232 0.235 0.000 0.0093 0.235 0.0093
1708773495.9310 0.237 0.000 0.0109 0.237 0.0109
1708773495.9392 0.239 0.000 0.0140 0.239 0.0140
1708773495.9474 0.242 0.000 0.0155 0.242 0.0155
1708773495.9557 0.244 0.000 0.0140 0.244 0.0140
1708773495.9628 0.246 0.001 0.0124 0.246 0.0124
1708773495.9710 0.248 0.001 0.0140 0.248 0.0140
1708773495.9787 0.251 0.001 0.0202 0.251 0.0202
1708773495.9877 0.253 0.001 0.0217 0.253 0.0217
1708773495.9948 0.256 0.001 0.0171 0.256 0.0171
1708773496.0030 0.258 0.001 0.0171 0.258 0.0171
1708773496.0112 0.260 0.001 0.0217 0.260 0.0217
1708773496.0194 0.262 0.001 0.0248 0.262 0.0248
1708773496.0271 0.264 0.001 0.0233 0.264 0.0233
1708773496.0353 0.267 0.001 0.0217 0.267 0.0217
1708773496.0436 0.269 0.001 0.0248 0.269 0.0248
1708773496.0519 0.271 0.001 0.0264 0.271 0.0264
1708773496.0591 0.274 0.001 0.0248 0.274 0.0248
1708773496.0673 0.276 0.001 0.0248 0.276 0.0248
1708773496.0750 0.278 0.001 0.0248 0.278 0.0248
1708773496.0832 0.281 0.001 0.0248 0.281 0.0248
1708773496.0913 0.284 0.001 0.0279 0.284 0.0279
1708773496.0990 0.286 0.001 0.0264 0.286 0.0264
1708773496.1068 0.289 0.001 0.0264 0.289 0.0264
1708773496.1151 0.291 0.002 0.0264 0.291 0.0264
1708773496.1230 0.293 0.002 0.0264 0.293 0.0264
1708773496.1312 0.296 0.002 0.0264 0.296 0.0264
1708773496.1393 0.299 0.002 0.0279 0.299 0.0279
1708773496.1470 0.301 0.002 0.0295 0.301 0.0295
1708773496.1548 0.303 0.002 0.0264 0.303 0.0264
1708773496.1632 0.306 0.002 0.0248 0.306 0.0248
1708773496.1709 0.308 0.002 0.0279 0.308 0.0279
1708773496.1800 0.310 0.002 0.0310 0.310 0.0310
1708773496.1871 0.313 0.002 0.0279 0.313 0.0279
1708773496.1949 0.316 0.002 0.0233 0.316 0.0233
1708773496.2028 0.318 0.002 0.0217 0.318 0.0217
1708773496.2109 0.320 0.002 0.0248 0.320 0.0248
1708773496.2187 0.323 0.002 0.0264 0.323 0.0264
1708773496.2267 0.325 0.002 0.0233 0.325 0.0233
1708773496.2350 0.328 0.003 0.0217 0.328 0.0217
1708773496.2428 0.330 0.003 0.0233 0.330 0.0233
1708773496.2517 0.333 0.003 0.0248 0.333 0.0248
1708773496.2589 0.335 0.003 0.0248 0.335 0.0248
1708773496.2667 0.338 0.003 0.0248 0.338 0.0248
1708773496.2747 0.340 0.003 0.0279 0.340 0.0279
1708773496.2830 0.342 0.003 0.0310 0.342 0.0310
1708773496.2907 0.344 0.003 0.0279 0.344 0.0279
1708773496.2990 0.347 0.003 0.0264 0.347 0.0264
1708773496.3068 0.349 0.003 0.0279 0.349 0.0279
1708773496.3154 0.351 0.003 0.0310 0.351 0.0310
1708773496.3236 0.353 0.003 0.0279 0.353 0.0279
1708773496.3308 0.355 0.003 0.0264 0.355 0.0264
1708773496.3396 0.358 0.003 0.0279 0.358 0.0279
1708773496.3468 0.360 0.003 0.0264 0.360 0.0264
1708773496.3547 0.362 0.003 0.0248 0.362 0.0248
1708773496.3634 0.364 0.003 0.0264 0.364 0.0264
1708773496.3715 0.367 0.004 0.0248 0.367 0.0248
1708773496.3787 0.369 0.004 0.0248 0.369 0.0248
1708773496.3875 0.372 0.004 0.0264 0.372 0.0264
1708773496.3957 0.374 0.004 0.0264 0.374 0.0264
1708773496.4035 0.376 0.004 0.0264 0.376 0.0264
1708773496.4110 0.379 0.004 0.0279 0.379 0.0279
1708773496.4192 0.382 0.004 0.0264 0.382 0.0264
1708773496.4276 0.384 0.004 0.0264 0.384 0.0264
1708773496.4354 0.386 0.004 0.0264 0.386 0.0264
1708773496.4436 0.388 0.004 0.0279 0.388 0.0279
1708773496.4523 0.391 0.004 0.0264 0.391 0.0264
1708773496.4590 0.394 0.004 0.0248 0.394 0.0248
1708773496.4672 0.397 0.004 0.0233 0.397 0.0233
1708773496.4755 0.398 0.004 0.0248 0.398 0.0248
1708773496.4832 0.400 0.004 0.0279 0.400 0.0279
1708773496.4911 0.403 0.005 0.0279 0.403 0.0279
1708773496.4992 0.406 0.005 0.0248 0.406 0.0248
1708773496.5066 0.408 0.005 0.0248 0.409 0.0248
1708773496.5149 0.410 0.005 0.0233 0.410 0.0233
1708773496.5232 0.412 0.005 0.0248 0.412 0.0248
1708773496.5309 0.415 0.005 0.0248 0.415 0.0248
1708773496.5401 0.418 0.005 0.0233 0.418 0.0233
1708773496.5472 0.420 0.005 0.0233 0.420 0.0233
1708773496.5556 0.422 0.005 0.0248 0.422 0.0248
1708773496.5628 0.424 0.005 0.0264 0.425 0.0264
1708773496.5711 0.427 0.005 0.0264 0.427 0.0264
1708773496.5789 0.430 0.005 0.0248 0.430 0.0248
1708773496.5869 0.432 0.005 0.0217 0.432 0.0217
1708773496.5952 0.434 0.005 0.0248 0.434 0.0248
1708773496.6036 0.436 0.005 0.0295 0.436 0.0295
1708773496.6108 0.439 0.005 0.0295 0.439 0.0295
1708773496.6191 0.442 0.005 0.0248 0.442 0.0248
1708773496.6268 0.444 0.006 0.0217 0.444 0.0217
1708773496.6349 0.446 0.006 0.0233 0.446 0.0233
1708773496.6432 0.448 0.006 0.0264 0.448 0.0264
1708773496.6516 0.451 0.006 0.0279 0.451 0.0279
1708773496.6588 0.454 0.006 0.0248 0.454 0.0248
1708773496.6670 0.456 0.006 0.0217 0.456 0.0217
1708773496.6759 0.458 0.006 0.0233 0.458 0.0233
1708773496.6833 0.460 0.006 0.0264 0.460 0.0264
1708773496.6916 0.463 0.006 0.0279 0.463 0.0279
1708773496.6995 0.466 0.006 0.0248 0.466 0.0248
1708773496.7073 0.468 0.006 0.0233 0.468 0.0233
1708773496.7156 0.470 0.006 0.0248 0.470 0.0248
1708773496.7233 0.472 0.006 0.0279 0.472 0.0279
1708773496.7315 0.475 0.006 0.0279 0.475 0.0279
1708773496.7387 0.478 0.006 0.0248 0.478 0.0248
1708773496.7475 0.480 0.006 0.0233 0.480 0.0233
1708773496.7553 0.482 0.006 0.0248 0.482 0.0248
1708773496.7636 0.484 0.007 0.0279 0.484 0.0279
1708773496.7713 0.487 0.007 0.0279 0.487 0.0279
1708773496.7795 0.490 0.007 0.0248 0.490 0.0248
1708773496.7866 0.492 0.007 0.0248 0.492 0.0248
1708773496.7955 0.494 0.007 0.0248 0.494 0.0248
1708773496.8033 0.496 0.007 0.0264 0.496 0.0264
1708773496.8114 0.499 0.007 0.0264 0.499 0.0264
1708773496.8191 0.502 0.007 0.0264 0.502 0.0264
1708773496.8273 0.503 0.007 0.0248 0.504 0.0248
1708773496.8356 0.505 0.007 0.0264 0.505 0.0264
1708773496.8433 0.508 0.007 0.0279 0.508 0.0279
1708773496.8522 0.511 0.007 0.0264 0.511 0.0264
1708773496.8592 0.513 0.007 0.0248 0.513 0.0248
1708773496.8670 0.516 0.007 0.0248 0.516 0.0248
1708773496.8752 0.517 0.007 0.0264 0.517 0.0264
1708773496.8836 0.519 0.007 0.0264 0.520 0.0264
1708773496.8914 0.522 0.008 0.0248 0.522 0.0248
1708773496.9005 0.525 0.008 0.0248 0.525 0.0248
1708773496.9072 0.527 0.008 0.0279 0.527 0.0279
1708773496.9149 0.529 0.008 0.0264 0.529 0.0264
1708773496.9231 0.531 0.008 0.0248 0.531 0.0248
1708773496.9314 0.534 0.008 0.0233 0.534 0.0233
1708773496.9391 0.537 0.008 0.0233 0.537 0.0233
1708773496.9471 0.539 0.008 0.0264 0.540 0.0264
1708773496.9550 0.541 0.008 0.0279 0.541 0.0279
1708773496.9628 0.543 0.008 0.0248 0.543 0.0248
1708773496.9710 0.546 0.008 0.0233 0.546 0.0233
1708773496.9792 0.549 0.008 0.0248 0.549 0.0248
1708773496.9866 0.551 0.008 0.0279 0.551 0.0279
1708773496.9946 0.553 0.008 0.0248 0.553 0.0248
1708773497.0036 0.556 0.008 0.0217 0.556 0.0217
1708773497.0114 0.558 0.008 0.0202 0.558 0.0202
1708773497.0196 0.561 0.008 0.0233 0.561 0.0233
1708773497.0268 0.563 0.009 0.0248 0.563 0.0248
1708773497.0355 0.565 0.009 0.0217 0.565 0.0217
1708773497.0436 0.568 0.009 0.0186 0.568 0.0186
1708773497.0515 0.571 0.009 0.0202 0.571 0.0202
1708773497.0592 0.573 0.009 0.0233 0.574 0.0233
1708773497.0675 0.575 0.009 0.0233 0.575 0.0233
1708773497.0746 0.577 0.009 0.0202 0.577 0.0202
1708773497.0833 0.580 0.009 0.0186 0.580 0.0186
1708773497.0915 0.582 0.009 0.0217 0.582 0.0217
1708773497.0987 0.585 0.009 0.0248 0.585 0.0248
1708773497.1072 0.587 0.009 0.0248 0.587 0.0248
1708773497.1154 0.589 0.009 0.0217 0.590 0.0217
1708773497.1236 0.592 0.009 0.0217 0.592 0.0217
1708773497.1312 0.595 0.009 0.0233 0.595 0.0233
1708773497.1394 0.597 0.009 0.0264 0.597 0.0264
1708773497.1477 0.599 0.009 0.0264 0.599 0.0264
1708773497.1551 0.602 0.009 0.0217 0.602 0.0217
1708773497.1633 0.604 0.009 0.0202 0.604 0.0202
1708773497.1716 0.607 0.010 0.0217 0.607 0.0217
1708773497.1795 0.609 0.010 0.0264 0.609 0.0264
1708773497.1877 0.611 0.010 0.0264 0.611 0.0264
1708773497.1948 0.614 0.010 0.0233 0.614 0.0233
1708773497.2033 0.616 0.010 0.0217 0.616 0.0217
1708773497.2116 0.618 0.010 0.0248 0.619 0.0248
1708773497.2197 0.621 0.010 0.0264 0.621 0.0264
1708773497.2275 0.623 0.010 0.0248 0.624 0.0248
1708773497.2347 0.626 0.010 0.0217 0.626 0.0217
1708773497.2430 0.628 0.010 0.0217 0.628 0.0217
1708773497.2515 0.630 0.010 0.0264 0.630 0.0264
1708773497.2596 0.632 0.010 0.0279 0.633 0.0279
1708773497.2668 0.635 0.010 0.0248 0.636 0.0248
1708773497.2756 0.638 0.010 0.0248 0.638 0.0248
1708773497.2828 0.640 0.010 0.0264 0.640 0.0264
1708773497.2911 0.642 0.010 0.0264 0.642 0.0264
1708773497.2988 0.645 0.010 0.0264 0.645 0.0264
1708773497.3076 0.647 0.011 0.0264 0.647 0.0264
1708773497.3147 0.650 0.011 0.0279 0.650 0.0279
1708773497.3236 0.652 0.011 0.0279 0.652 0.0279
1708773497.3308 0.654 0.011 0.0264 0.654 0.0264
1708773497.3391 0.656 0.011 0.0264 0.656 0.0264
1708773497.3468 0.659 0.011 0.0279 0.659 0.0279
1708773497.3556 0.661 0.011 0.0310 0.662 0.0310
1708773497.3628 0.664 0.011 0.0295 0.664 0.0295
1708773497.3717 0.666 0.011 0.0264 0.666 0.0264
1708773497.3788 0.668 0.011 0.0248 0.668 0.0248
1708773497.3871 0.670 0.011 0.0264 0.670 0.0264
1708773497.3947 0.673 0.011 0.0279 0.673 0.0279
1708773497.4036 0.676 0.011 0.0279 0.676 0.0279
1708773497.4108 0.678 0.011 0.0279 0.678 0.0279
1708773497.4197 0.680 0.011 0.0264 0.680 0.0264
1708773497.4269 0.683 0.011 0.0248 0.683 0.0248
1708773497.4352 0.685 0.012 0.0264 0.685 0.0264
1708773497.4427 0.687 0.012 0.0295 0.687 0.0295
1708773497.4516 0.690 0.012 0.0279 0.690 0.0279
1708773497.4588 0.692 0.012 0.0248 0.692 0.0248
1708773497.4677 0.694 0.012 0.0248 0.694 0.0248
1708773497.4748 0.697 0.012 0.0295 0.697 0.0295
1708773497.4831 0.700 0.012 0.0310 0.700 0.0310
1708773497.4915 0.702 0.012 0.0264 0.702 0.0264
1708773497.4997 0.704 0.012 0.0217 0.704 0.0217
1708773497.5076 0.706 0.012 0.0233 0.706 0.0233
1708773497.5154 0.709 0.012 0.0264 0.709 0.0264
1708773497.5236 0.711 0.012 0.0264 0.712 0.0264
1708773497.5316 0.714 0.012 0.0248 0.714 0.0248
1708773497.5396 0.716 0.012 0.0233 0.716 0.0233
1708773497.5467 0.718 0.012 0.0233 0.718 0.0233
1708773497.5557 0.721 0.012 0.0248 0.721 0.0248
1708773497.5635 0.723 0.013 0.0264 0.723 0.0264
1708773497.5716 0.726 0.013 0.0233 0.726 0.0233
1708773497.5787 0.728 0.013 0.0202 0.729 0.0202
1708773497.5876 0.730 0.013 0.0233 0.730 0.0233
1708773497.5948 0.732 0.013 0.0295 0.732 0.0295
1708773497.6027 0.735 0.013 0.0279 0.735 0.0279
1708773497.6116 0.737 0.013 0.0233 0.738 0.0233
1708773497.6197 0.740 0.013 0.0217 0.740 0.0217
1708773497.6269 0.742 0.013 0.0248 0.742 0.0248
1708773497.6347 0.744 0.013 0.0310 0.745 0.0310
1708773497.6430 0.747 0.013 0.0295 0.747 0.0295
1708773497.6520 0.749 0.013 0.0248 0.749 0.0248
1708773497.6587 0.752 0.013 0.0248 0.752 0.0248
1708773497.6668 0.754 0.013 0.0279 0.754 0.0279
1708773497.6751 0.756 0.013 0.0279 0.756 0.0279
1708773497.6830 0.758 0.013 0.0233 0.758 0.0233
1708773497.6907 0.761 0.014 0.0217 0.761 0.0217
1708773497.6990 0.764 0.014 0.0248 0.764 0.0248
1708773497.7075 0.766 0.014 0.0264 0.766 0.0264
1708773497.7154 0.768 0.014 0.0264 0.769 0.0264
1708773497.7237 0.771 0.014 0.0233 0.771 0.0233
1708773497.7315 0.773 0.014 0.0217 0.773 0.0217
1708773497.7387 0.776 0.014 0.0248 0.776 0.0248
1708773497.7470 0.778 0.014 0.0264 0.778 0.0264
1708773497.7552 0.780 0.014 0.0264 0.780 0.0264
1708773497.7635 0.782 0.014 0.0248 0.782 0.0248
1708773497.7709 0.785 0.014 0.0248 0.785 0.0248
1708773497.7788 0.788 0.014 0.0248 0.788 0.0248
1708773497.7871 0.790 0.014 0.0264 0.790 0.0264
1708773497.7953 0.792 0.014 0.0264 0.792 0.0264
1708773497.8036 0.795 0.014 0.0248 0.795 0.0248
1708773497.8107 0.798 0.014 0.0248 0.798 0.0248
1708773497.8190 0.800 0.014 0.0264 0.800 0.0264
1708773497.8268 0.802 0.015 0.0264 0.802 0.0264
1708773497.8352 0.804 0.015 0.0248 0.804 0.0248
1708773497.8434 0.807 0.015 0.0217 0.807 0.0217
1708773497.8517 0.810 0.015 0.0217 0.810 0.0217
1708773497.8589 0.812 0.015 0.0233 0.813 0.0233
1708773497.8673 0.814 0.015 0.0264 0.815 0.0264
1708773497.8751 0.816 0.015 0.0264 0.816 0.0264
1708773497.8833 0.818 0.015 0.0248 0.819 0.0248
1708773497.8915 0.822 0.015 0.0233 0.822 0.0233
1708773497.8993 0.824 0.015 0.0233 0.824 0.0233
1708773497.9072 0.826 0.015 0.0233 0.826 0.0233
1708773497.9155 0.828 0.015 0.0264 0.828 0.0264
1708773497.9231 0.830 0.015 0.0279 0.831 0.0279
1708773497.9314 0.833 0.015 0.0248 0.834 0.0248
1708773497.9395 0.835 0.015 0.0217 0.835 0.0217
1708773497.9473 0.837 0.015 0.0217 0.837 0.0217
1708773497.9551 0.840 0.015 0.0264 0.840 0.0264
1708773497.9634 0.843 0.016 0.0264 0.843 0.0264
1708773497.9712 0.845 0.016 0.0248 0.845 0.0248
1708773497.9803 0.847 0.016 0.0264 0.847 0.0264
1708773497.9871 0.849 0.016 0.0264 0.849 0.0264
1708773497.9948 0.852 0.016 0.0279 0.852 0.0279
1708773498.0037 0.854 0.016 0.0248 0.854 0.0248
1708773498.0109 0.856 0.016 0.0248 0.856 0.0248
1708773498.0187 0.858 0.016 0.0326 0.858 0.0326
1708773498.0267 0.861 0.016 0.0310 0.861 0.0310
1708773498.0350 0.864 0.016 0.0264 0.864 0.0264
1708773498.0428 0.866 0.016 0.0264 0.866 0.0264
1708773498.0517 0.868 0.016 0.0295 0.868 0.0295
1708773498.0589 0.870 0.016 0.0295 0.870 0.0295
1708773498.0668 0.873 0.016 0.0279 0.873 0.0279
1708773498.0748 0.876 0.016 0.0279 0.876 0.0279
1708773498.0831 0.878 0.017 0.0264 0.878 0.0264
1708773498.0909 0.880 0.017 0.0264 0.880 0.0264
1708773498.0992 0.882 0.017 0.0248 0.883 0.0248
1708773498.1071 0.885 0.017 0.0233 0.885 0.0233
1708773498.1157 0.888 0.017 0.0248 0.888 0.0248
1708773498.1228 0.890 0.017 0.0248 0.890 0.0248
1708773498.1311 0.892 0.017 0.0248 0.892 0.0248
1708773498.1390 0.895 0.017 0.0202 0.895 0.0202
1708773498.1472 0.897 0.017 0.0202 0.898 0.0202
1708773498.1550 0.900 0.017 0.0248 0.900 0.0248
1708773498.1637 0.902 0.017 0.0279 0.903 0.0279
1708773498.1708 0.905 0.017 0.0248 0.905 0.0248
1708773498.1791 0.907 0.017 0.0217 0.907 0.0217
1708773498.1868 0.909 0.017 0.0248 0.909 0.0248
1708773498.1951 0.911 0.017 0.0279 0.912 0.0279
1708773498.2030 0.914 0.017 0.0264 0.914 0.0264
1708773498.2116 0.916 0.017 0.0217 0.917 0.0217
1708773498.2187 0.919 0.017 0.0217 0.919 0.0217
1708773498.2270 0.921 0.018 0.0279 0.921 0.0279
1708773498.2348 0.923 0.018 0.0279 0.923 0.0279
1708773498.2430 0.925 0.018 0.0217 0.926 0.0217
1708773498.2518 0.928 0.018 0.0186 0.928 0.0186
1708773498.2596 0.931 0.018 0.0217 0.931 0.0217
