% Pose without folding and reset (log_20240224_144545.888/log_pose_abs.txt)
% 1 	Time (sec)
% 2,3 	Position x,y (m)
% 4 	heading (rad)
% 5 	Driven distance (m) - signed
% 6 	Turned angle (rad) - signed
1708782346.5373 0.000 0.000 0.0000 0.000 0.0000
1708782346.5449 0.000 0.000 0.0000 0.000 0.0000
1708782346.5522 0.000 0.000 0.0000 0.000 0.0000
1708782346.5608 0.000 0.000 0.0000 0.000 0.0000
1708782346.5688 0.000 0.000 0.0000 0.000 0.0000
1708782346.5761 0.002 0.000 0.0000 0.002 0.0000
1708782346.5847 0.006 -0.000 -0.0047 0.006 -0.0047
1708782346.5925 0.008 -0.000 -0.0047 0.008 -0.0047
1708782346.6004 0.010 -0.000 -0.0016 0.010 -0.0016
1708782346.6081 0.013 -0.000 0.0000 0.013 0.0000
1708782346.6164 0.018 -0.000 0.0016 0.018 0.0016
1708782346.6247 0.022 -0.000 0.0000 0.022 0.0000
1708782346.6328 0.027 -0.000 -0.0016 0.027 -0.0016
1708782346.6409 0.032 -0.000 0.0031 0.032 0.0031
1708782346.6486 0.038 0.000 0.0047 0.038 0.0047
1708782346.6565 0.044 0.000 0.0047 0.044 0.0047
1708782346.6647 0.050 0.000 0.0093 0.050 0.0093
1708782346.6723 0.056 0.000 0.0109 0.056 0.0109
1708782346.6802 0.063 0.000 0.0109 0.063 0.0109
1708782346.6886 0.069 0.000 0.0124 0.069 0.0124
1708782346.6968 0.076 0.000 0.0140 0.076 0.0140
1708782346.7042 0.083 0.000 0.0140 0.083 0.0140
1708782346.7124 0.090 0.001 0.0140 0.090 0.0140
1708782346.7206 0.096 0.001 0.0140 0.096 0.0140
1708782346.7284 0.102 0.001 0.0155 0.102 0.0155
1708782346.7363 0.109 0.001 0.0171 0.109 0.0171
1708782346.7441 0.115 0.001 0.0186 0.115 0.0186
1708782346.7518 0.122 0.001 0.0171 0.122 0.0171
1708782346.7601 0.128 0.001 0.0171 0.128 0.0171
1708782346.7683 0.135 0.001 0.0171 0.135 0.0171
1708782346.7768 0.141 0.001 0.0155 0.141 0.0155
1708782346.7839 0.148 0.001 0.0093 0.148 0.0093
1708782346.7928 0.154 0.002 0.0109 0.154 0.0109
1708782346.8005 0.160 0.002 0.0171 0.160 0.0171
1708782346.8081 0.167 0.002 0.0171 0.167 0.0171
1708782346.8168 0.173 0.002 0.0171 0.173 0.0171
1708782346.8244 0.180 0.002 0.0155 0.180 0.0155
1708782346.8326 0.187 0.002 0.0202 0.187 0.0202
1708782346.8407 0.194 0.002 0.0233 0.194 0.0233
1708782346.8480 0.200 0.002 0.0233 0.200 0.0233
1708782346.8561 0.207 0.003 0.0217 0.207 0.0217
1708782346.8640 0.214 0.003 0.0202 0.214 0.0202
1708782346.8725 0.220 0.003 0.0217 0.220 0.0217
1708782346.8807 0.227 0.003 0.0202 0.227 0.0202
1708782346.8889 0.234 0.003 0.0202 0.234 0.0202
1708782346.8962 0.241 0.003 0.0202 0.241 0.0202
1708782346.9043 0.248 0.003 0.0233 0.248 0.0233
1708782346.9124 0.254 0.004 0.0217 0.254 0.0217
1708782346.9200 0.261 0.004 0.0155 0.261 0.0155
1708782346.9281 0.267 0.004 0.0124 0.267 0.0124
1708782346.9364 0.274 0.004 0.0140 0.274 0.0140
1708782346.9443 0.281 0.004 0.0155 0.281 0.0155
1708782346.9525 0.287 0.004 0.0124 0.287 0.0124
1708782346.9605 0.293 0.004 0.0062 0.293 0.0062
1708782346.9682 0.300 0.004 0.0016 0.300 0.0016
1708782346.9764 0.307 0.004 0.0031 0.307 0.0031
1708782346.9845 0.314 0.004 0.0016 0.314 0.0016
1708782346.9929 0.321 0.004 -0.0016 0.321 -0.0016
1708782347.0000 0.327 0.004 -0.0062 0.327 -0.0062
1708782347.0080 0.333 0.004 -0.0124 0.333 -0.0124
1708782347.0168 0.339 0.004 -0.0155 0.339 -0.0155
1708782347.0239 0.346 0.004 -0.0140 0.346 -0.0140
1708782347.0328 0.353 0.004 -0.0155 0.353 -0.0155
1708782347.0405 0.359 0.004 -0.0202 0.359 -0.0202
1708782347.0479 0.365 0.004 -0.0295 0.365 -0.0295
1708782347.0561 0.372 0.003 -0.0326 0.372 -0.0326
1708782347.0642 0.378 0.003 -0.0341 0.378 -0.0341
1708782347.0725 0.384 0.003 -0.0404 0.384 -0.0404
1708782347.0807 0.391 0.003 -0.0512 0.391 -0.0512
1708782347.0885 0.398 0.002 -0.0543 0.398 -0.0543
1708782347.0960 0.404 0.002 -0.0559 0.404 -0.0559
1708782347.1043 0.410 0.002 -0.0590 0.410 -0.0590
1708782347.1120 0.416 0.001 -0.0652 0.416 -0.0652
1708782347.1202 0.423 0.001 -0.0745 0.423 -0.0745
1708782347.1284 0.429 0.000 -0.0807 0.429 -0.0807
1708782347.1364 0.435 -0.000 -0.0854 0.435 -0.0854
1708782347.1455 0.441 -0.001 -0.0885 0.442 -0.0885
1708782347.1530 0.448 -0.001 -0.0962 0.448 -0.0962
1708782347.1600 0.454 -0.002 -0.1009 0.455 -0.1009
1708782347.1683 0.460 -0.003 -0.1040 0.460 -0.1040
1708782347.1762 0.466 -0.003 -0.1087 0.466 -0.1087
1708782347.1848 0.472 -0.004 -0.1149 0.472 -0.1149
1708782347.1930 0.479 -0.005 -0.1195 0.479 -0.1195
1708782347.2001 0.485 -0.006 -0.1273 0.486 -0.1273
1708782347.2083 0.491 -0.006 -0.1304 0.492 -0.1304
1708782347.2169 0.497 -0.007 -0.1335 0.498 -0.1335
1708782347.2241 0.503 -0.008 -0.1397 0.504 -0.1397
1708782347.2328 0.510 -0.009 -0.1475 0.511 -0.1475
1708782347.2399 0.516 -0.010 -0.1506 0.517 -0.1506
1708782347.2481 0.522 -0.011 -0.1521 0.523 -0.1521
1708782347.2564 0.528 -0.012 -0.1568 0.529 -0.1568
1708782347.2646 0.534 -0.013 -0.1630 0.535 -0.1630
1708782347.2727 0.542 -0.014 -0.1661 0.543 -0.1661
1708782347.2805 0.548 -0.015 -0.1661 0.549 -0.1661
1708782347.2887 0.554 -0.016 -0.1676 0.555 -0.1676
1708782347.2965 0.560 -0.017 -0.1692 0.561 -0.1692
1708782347.3043 0.566 -0.018 -0.1707 0.568 -0.1707
1708782347.3125 0.573 -0.019 -0.1739 0.574 -0.1739
1708782347.3205 0.579 -0.020 -0.1723 0.580 -0.1723
1708782347.3282 0.585 -0.021 -0.1676 0.587 -0.1676
1708782347.3364 0.592 -0.023 -0.1676 0.593 -0.1676
1708782347.3448 0.598 -0.024 -0.1707 0.600 -0.1707
1708782347.3518 0.604 -0.025 -0.1707 0.606 -0.1707
1708782347.3600 0.610 -0.026 -0.1661 0.612 -0.1661
1708782347.3680 0.616 -0.027 -0.1630 0.618 -0.1630
1708782347.3768 0.622 -0.028 -0.1645 0.625 -0.1645
1708782347.3840 0.629 -0.029 -0.1645 0.631 -0.1645
1708782347.3929 0.636 -0.030 -0.1630 0.638 -0.1630
1708782347.4003 0.641 -0.031 -0.1583 0.644 -0.1583
1708782347.4087 0.648 -0.032 -0.1537 0.650 -0.1537
1708782347.4159 0.654 -0.033 -0.1521 0.657 -0.1521
1708782347.4248 0.661 -0.034 -0.1521 0.663 -0.1521
1708782347.4319 0.666 -0.035 -0.1490 0.669 -0.1490
1708782347.4402 0.673 -0.036 -0.1444 0.675 -0.1444
1708782347.4486 0.679 -0.037 -0.1413 0.682 -0.1413
1708782347.4566 0.686 -0.037 -0.1382 0.689 -0.1382
1708782347.4648 0.693 -0.038 -0.1335 0.696 -0.1335
1708782347.4720 0.699 -0.039 -0.1242 0.702 -0.1242
1708782347.4804 0.705 -0.040 -0.1195 0.708 -0.1195
1708782347.4885 0.711 -0.041 -0.1180 0.714 -0.1180
1708782347.4967 0.717 -0.041 -0.1149 0.720 -0.1149
1708782347.5049 0.723 -0.042 -0.1040 0.726 -0.1040
1708782347.5120 0.729 -0.043 -0.0978 0.733 -0.0978
1708782347.5201 0.736 -0.043 -0.0931 0.739 -0.0931
1708782347.5279 0.742 -0.044 -0.0869 0.745 -0.0869
1708782347.5361 0.748 -0.044 -0.0792 0.752 -0.0792
1708782347.5443 0.755 -0.045 -0.0730 0.758 -0.0730
1708782347.5524 0.762 -0.045 -0.0683 0.765 -0.0683
1708782347.5607 0.768 -0.046 -0.0667 0.771 -0.0667
1708782347.5684 0.774 -0.046 -0.0559 0.777 -0.0559
1708782347.5765 0.781 -0.047 -0.0481 0.784 -0.0481
1708782347.5847 0.788 -0.047 -0.0435 0.791 -0.0435
1708782347.5927 0.794 -0.047 -0.0373 0.798 -0.0373
1708782347.6004 0.801 -0.047 -0.0295 0.804 -0.0295
1708782347.6087 0.806 -0.047 -0.0217 0.810 -0.0217
1708782347.6164 0.813 -0.048 -0.0171 0.816 -0.0171
1708782347.6245 0.819 -0.048 -0.0124 0.823 -0.0124
1708782347.6325 0.826 -0.048 -0.0062 0.829 -0.0062
1708782347.6406 0.832 -0.048 0.0016 0.836 0.0016
1708782347.6484 0.838 -0.048 0.0078 0.842 0.0078
1708782347.6566 0.845 -0.048 0.0109 0.849 0.0109
1708782347.6644 0.852 -0.048 0.0186 0.855 0.0186
1708782347.6726 0.858 -0.047 0.0233 0.861 0.0233
1708782347.6806 0.864 -0.047 0.0295 0.867 0.0295
1708782347.6883 0.871 -0.047 0.0373 0.874 0.0373
1708782347.6964 0.878 -0.047 0.0419 0.881 0.0419
1708782347.7047 0.884 -0.047 0.0435 0.888 0.0435
1708782347.7124 0.890 -0.046 0.0497 0.894 0.0497
1708782347.7206 0.896 -0.046 0.0590 0.900 0.0590
1708782347.7286 0.903 -0.045 0.0667 0.907 0.0667
1708782347.7359 0.910 -0.045 0.0683 0.914 0.0683
1708782347.7447 0.916 -0.045 0.0683 0.919 0.0683
1708782347.7529 0.921 -0.044 0.0714 0.925 0.0714
1708782347.7606 0.928 -0.044 0.0792 0.931 0.0792
1708782347.7679 0.935 -0.043 0.0823 0.938 0.0823
1708782347.7761 0.941 -0.043 0.0854 0.945 0.0854
1708782347.7839 0.947 -0.042 0.0869 0.951 0.0869
1708782347.7920 0.953 -0.042 0.0947 0.957 0.0947
1708782347.8001 0.960 -0.041 0.0962 0.964 0.0962
1708782347.8079 0.966 -0.040 0.0931 0.970 0.0931
1708782347.8159 0.973 -0.040 0.0947 0.976 0.0947
1708782347.8245 0.979 -0.039 0.0978 0.982 0.0978
1708782347.8322 0.985 -0.039 0.0993 0.989 0.0993
1708782347.8404 0.992 -0.038 0.0993 0.996 0.0993
1708782347.8482 0.998 -0.037 0.0993 1.002 0.0993
1708782347.8570 1.004 -0.037 0.1009 1.008 0.1009
1708782347.8645 1.010 -0.036 0.1024 1.014 0.1024
1708782347.8727 1.017 -0.035 0.1040 1.021 0.1040
1708782347.8805 1.023 -0.035 0.1056 1.027 0.1056
1708782347.8886 1.029 -0.034 0.0993 1.033 0.0993
1708782347.8964 1.035 -0.033 0.0947 1.039 0.0947
1708782347.9039 1.042 -0.033 0.0916 1.046 0.0916
1708782347.9121 1.049 -0.032 0.0916 1.053 0.0916
1708782347.9203 1.055 -0.032 0.0900 1.059 0.0900
1708782347.9280 1.061 -0.031 0.0854 1.065 0.0854
1708782347.9362 1.068 -0.031 0.0792 1.072 0.0792
1708782347.9440 1.074 -0.030 0.0745 1.078 0.0745
1708782347.9525 1.080 -0.030 0.0714 1.084 0.0714
1708782347.9607 1.087 -0.029 0.0652 1.091 0.0652
1708782347.9679 1.093 -0.029 0.0605 1.097 0.0605
1708782347.9767 1.100 -0.028 0.0590 1.104 0.0590
1708782347.9848 1.106 -0.028 0.0543 1.110 0.0543
1708782347.9920 1.112 -0.028 0.0466 1.117 0.0466
1708782347.9999 1.119 -0.027 0.0419 1.123 0.0419
1708782348.0082 1.124 -0.027 0.0388 1.129 0.0388
1708782348.0164 1.130 -0.027 0.0341 1.135 0.0341
1708782348.0241 1.137 -0.027 0.0264 1.142 0.0264
1708782348.0320 1.144 -0.027 0.0202 1.149 0.0202
1708782348.0403 1.151 -0.026 0.0171 1.155 0.0171
1708782348.0487 1.157 -0.026 0.0109 1.161 0.0109
1708782348.0559 1.163 -0.026 0.0047 1.167 0.0047
1708782348.0641 1.170 -0.026 -0.0016 1.174 -0.0016
1708782348.0729 1.176 -0.026 -0.0078 1.180 -0.0078
1708782348.0799 1.182 -0.026 -0.0171 1.186 -0.0171
1708782348.0880 1.189 -0.027 -0.0233 1.193 -0.0233
1708782348.0964 1.195 -0.027 -0.0279 1.199 -0.0279
1708782348.1045 1.201 -0.027 -0.0341 1.205 -0.0341
1708782348.1122 1.207 -0.027 -0.0419 1.212 -0.0419
1708782348.1209 1.214 -0.027 -0.0497 1.219 -0.0497
1708782348.1297 1.221 -0.028 -0.0559 1.225 -0.0559
1708782348.1363 1.227 -0.028 -0.0621 1.232 -0.0621
1708782348.1440 1.234 -0.029 -0.0667 1.238 -0.0667
1708782348.1526 1.239 -0.029 -0.0699 1.244 -0.0699
1708782348.1609 1.245 -0.029 -0.0745 1.250 -0.0745
1708782348.1685 1.252 -0.030 -0.0838 1.256 -0.0838
1708782348.1766 1.259 -0.031 -0.0900 1.264 -0.0900
1708782348.1845 1.265 -0.031 -0.0931 1.270 -0.0931
1708782348.1921 1.271 -0.032 -0.0947 1.275 -0.0947
1708782348.2008 1.277 -0.032 -0.1024 1.281 -0.1024
1708782348.2085 1.283 -0.033 -0.1102 1.288 -0.1102
1708782348.2165 1.291 -0.034 -0.1164 1.295 -0.1164
1708782348.2240 1.297 -0.034 -0.1180 1.301 -0.1180
1708782348.2322 1.303 -0.035 -0.1195 1.307 -0.1195
1708782348.2402 1.308 -0.036 -0.1226 1.313 -0.1226
1708782348.2479 1.315 -0.037 -0.1257 1.320 -0.1257
1708782348.2561 1.322 -0.038 -0.1288 1.327 -0.1288
1708782348.2646 1.328 -0.038 -0.1304 1.333 -0.1304
1708782348.2729 1.334 -0.039 -0.1319 1.339 -0.1319
1708782348.2800 1.341 -0.040 -0.1350 1.346 -0.1350
1708782348.2888 1.348 -0.041 -0.1366 1.353 -0.1366
1708782348.2965 1.354 -0.042 -0.1335 1.359 -0.1335
1708782348.3047 1.360 -0.043 -0.1319 1.365 -0.1319
1708782348.3126 1.366 -0.044 -0.1350 1.372 -0.1350
1708782348.3208 1.373 -0.044 -0.1397 1.378 -0.1397
1708782348.3279 1.379 -0.045 -0.1382 1.384 -0.1382
1708782348.3367 1.385 -0.046 -0.1319 1.391 -0.1319
1708782348.3445 1.391 -0.047 -0.1335 1.397 -0.1335
1708782348.3524 1.398 -0.048 -0.1350 1.403 -0.1350
1708782348.3602 1.404 -0.049 -0.1350 1.410 -0.1350
1708782348.3683 1.410 -0.049 -0.1319 1.415 -0.1319
1708782348.3765 1.415 -0.050 -0.1288 1.421 -0.1288
1708782348.3843 1.422 -0.051 -0.1242 1.428 -0.1242
1708782348.3922 1.429 -0.052 -0.1242 1.435 -0.1242
1708782348.4002 1.435 -0.053 -0.1242 1.441 -0.1242
1708782348.4079 1.441 -0.053 -0.1180 1.447 -0.1180
1708782348.4162 1.448 -0.054 -0.1133 1.454 -0.1133
1708782348.4244 1.454 -0.055 -0.1118 1.460 -0.1118
1708782348.4321 1.460 -0.056 -0.1071 1.466 -0.1071
1708782348.4402 1.467 -0.056 -0.1024 1.473 -0.1024
1708782348.4489 1.473 -0.057 -0.0978 1.479 -0.0978
1708782348.4566 1.480 -0.058 -0.0947 1.486 -0.0947
1708782348.4642 1.487 -0.058 -0.0916 1.493 -0.0916
1708782348.4724 1.493 -0.059 -0.0854 1.499 -0.0854
1708782348.4801 1.499 -0.059 -0.0792 1.505 -0.0792
1708782348.4880 1.505 -0.060 -0.0761 1.512 -0.0761
1708782348.4969 1.512 -0.060 -0.0714 1.518 -0.0714
1708782348.5046 1.518 -0.061 -0.0652 1.524 -0.0652
1708782348.5128 1.524 -0.061 -0.0590 1.531 -0.0590
1708782348.5199 1.531 -0.061 -0.0512 1.538 -0.0512
1708782348.5288 1.538 -0.062 -0.0466 1.544 -0.0466
1708782348.5359 1.544 -0.062 -0.0404 1.550 -0.0404
1708782348.5448 1.550 -0.062 -0.0326 1.557 -0.0326
1708782348.5526 1.557 -0.062 -0.0264 1.563 -0.0264
1708782348.5607 1.563 -0.063 -0.0186 1.570 -0.0186
1708782348.5679 1.570 -0.063 -0.0124 1.576 -0.0124
1708782348.5768 1.576 -0.063 -0.0047 1.582 -0.0047
1708782348.5840 1.582 -0.063 0.0000 1.588 0.0000
1708782348.5921 1.589 -0.063 0.0062 1.595 0.0062
1708782348.6005 1.595 -0.063 0.0140 1.601 0.0140
1708782348.6087 1.601 -0.063 0.0202 1.607 0.0202
1708782348.6163 1.608 -0.062 0.0264 1.614 0.0264
1708782348.6239 1.614 -0.062 0.0295 1.620 0.0295
1708782348.6320 1.620 -0.062 0.0357 1.626 0.0357
1708782348.6402 1.625 -0.062 0.0435 1.632 0.0435
1708782348.6486 1.632 -0.061 0.0497 1.639 0.0497
1708782348.6568 1.639 -0.061 0.0559 1.646 0.0559
1708782348.6646 1.647 -0.061 0.0621 1.653 0.0621
1708782348.6721 1.652 -0.060 0.0667 1.659 0.0667
1708782348.6803 1.658 -0.060 0.0683 1.665 0.0683
1708782348.6885 1.664 -0.059 0.0730 1.670 0.0730
1708782348.6959 1.671 -0.059 0.0776 1.677 0.0776
1708782348.7040 1.678 -0.058 0.0823 1.684 0.0823
1708782348.7120 1.684 -0.058 0.0823 1.690 0.0823
1708782348.7208 1.690 -0.057 0.0854 1.696 0.0854
1708782348.7278 1.697 -0.057 0.0885 1.703 0.0885
1708782348.7365 1.704 -0.056 0.0931 1.710 0.0931
1708782348.7449 1.710 -0.056 0.0978 1.716 0.0978
1708782348.7521 1.715 -0.055 0.0993 1.722 0.0993
1708782348.7600 1.722 -0.054 0.1009 1.728 0.1009
1708782348.7688 1.728 -0.054 0.1040 1.735 0.1040
1708782348.7759 1.734 -0.053 0.1056 1.741 0.1056
1708782348.7841 1.741 -0.052 0.1071 1.747 0.1071
1708782348.7922 1.747 -0.052 0.1087 1.754 0.1087
1708782348.7999 1.753 -0.051 0.1087 1.760 0.1087
1708782348.8086 1.759 -0.050 0.1102 1.766 0.1102
1708782348.8167 1.765 -0.050 0.1102 1.772 0.1102
1708782348.8248 1.772 -0.049 0.1087 1.779 0.1087
1708782348.8320 1.779 -0.048 0.1071 1.785 0.1071
1708782348.8408 1.785 -0.048 0.1056 1.792 0.1056
1708782348.8483 1.790 -0.047 0.1024 1.797 0.1024
1708782348.8565 1.797 -0.046 0.1009 1.804 0.1009
1708782348.8639 1.804 -0.046 0.0978 1.811 0.0978
1708782348.8720 1.810 -0.045 0.0962 1.817 0.0962
1708782348.8802 1.816 -0.044 0.0947 1.823 0.0947
1708782348.8879 1.822 -0.044 0.0916 1.830 0.0916
1708782348.8965 1.829 -0.043 0.0854 1.836 0.0854
1708782348.9047 1.836 -0.043 0.0807 1.843 0.0807
1708782348.9125 1.842 -0.042 0.0761 1.850 0.0761
1708782348.9206 1.849 -0.042 0.0745 1.856 0.0745
1708782348.9282 1.855 -0.041 0.0699 1.862 0.0699
1708782348.9368 1.862 -0.041 0.0636 1.869 0.0636
1708782348.9439 1.868 -0.040 0.0559 1.875 0.0559
1708782348.9521 1.874 -0.040 0.0481 1.881 0.0481
1708782348.9609 1.880 -0.040 0.0450 1.887 0.0450
1708782348.9680 1.887 -0.040 0.0388 1.894 0.0388
1708782348.9762 1.893 -0.039 0.0310 1.901 0.0310
1708782348.9848 1.899 -0.039 0.0264 1.907 0.0264
1708782348.9923 1.905 -0.039 0.0186 1.913 0.0186
1708782349.0005 1.912 -0.039 0.0093 1.919 0.0093
1708782349.0083 1.918 -0.039 0.0016 1.925 0.0016
1708782349.0168 1.924 -0.039 -0.0031 1.932 -0.0031
1708782349.0239 1.931 -0.039 -0.0124 1.938 -0.0124
1708782349.0322 1.937 -0.039 -0.0217 1.944 -0.0217
1708782349.0404 1.943 -0.039 -0.0279 1.950 -0.0279
1708782349.0482 1.950 -0.039 -0.0357 1.957 -0.0357
1708782349.0563 1.957 -0.040 -0.0435 1.964 -0.0435
1708782349.0645 1.963 -0.040 -0.0512 1.970 -0.0512
1708782349.0724 1.969 -0.040 -0.0605 1.976 -0.0605
1708782349.0801 1.976 -0.041 -0.0667 1.983 -0.0667
1708782349.0883 1.983 -0.041 -0.0730 1.990 -0.0730
1708782349.0961 1.989 -0.042 -0.0792 1.996 -0.0792
1708782349.1049 1.995 -0.042 -0.0885 2.002 -0.0885
1708782349.1120 2.001 -0.043 -0.0978 2.008 -0.0978
1708782349.1200 2.008 -0.044 -0.1056 2.015 -0.1056
1708782349.1288 2.014 -0.044 -0.1102 2.022 -0.1102
1708782349.1362 2.020 -0.045 -0.1164 2.028 -0.1164
1708782349.1440 2.026 -0.046 -0.1211 2.034 -0.1211
1708782349.1528 2.033 -0.046 -0.1273 2.040 -0.1273
1708782349.1711 2.047 -0.048 -0.1506 2.055 -0.1506
1708782349.1789 2.054 -0.050 -0.1568 2.062 -0.1568
1708782349.1867 2.060 -0.051 -0.1599 2.068 -0.1599
1708782349.1949 2.066 -0.051 -0.1599 2.074 -0.1599
1708782349.2033 2.072 -0.052 -0.1630 2.080 -0.1630
1708782349.2111 2.079 -0.054 -0.1707 2.087 -0.1707
1708782349.2186 2.086 -0.055 -0.1754 2.094 -0.1754
1708782349.2263 2.092 -0.056 -0.1785 2.100 -0.1785
1708782349.2352 2.097 -0.057 -0.1785 2.106 -0.1785
1708782349.2434 2.104 -0.058 -0.1785 2.112 -0.1785
1708782349.2511 2.111 -0.059 -0.1801 2.119 -0.1801
1708782349.2589 2.117 -0.061 -0.1832 2.126 -0.1832
1708782349.2673 2.123 -0.062 -0.1832 2.132 -0.1832
1708782349.2750 2.129 -0.063 -0.1801 2.138 -0.1801
1708782349.2827 2.136 -0.064 -0.1801 2.145 -0.1801
1708782349.2903 2.142 -0.065 -0.1801 2.152 -0.1801
1708782349.2986 2.148 -0.066 -0.1816 2.157 -0.1816
1708782349.3072 2.153 -0.067 -0.1770 2.163 -0.1770
1708782349.3148 2.160 -0.068 -0.1723 2.169 -0.1723
1708782349.3226 2.167 -0.069 -0.1692 2.177 -0.1692
1708782349.3313 2.173 -0.070 -0.1692 2.183 -0.1692
1708782349.3414 2.179 -0.072 -0.1645 2.189 -0.1645
1708782349.3476 2.186 -0.073 -0.1599 2.195 -0.1599
1708782349.3562 2.193 -0.074 -0.1552 2.202 -0.1552
1708782349.3649 2.198 -0.074 -0.1506 2.208 -0.1506
1708782349.3715 2.204 -0.075 -0.1459 2.214 -0.1459
1708782349.3803 2.211 -0.076 -0.1397 2.221 -0.1397
1708782349.3891 2.217 -0.077 -0.1319 2.227 -0.1319
1708782349.3962 2.223 -0.078 -0.1242 2.233 -0.1242
1708782349.4037 2.230 -0.079 -0.1195 2.240 -0.1195
1708782349.4136 2.236 -0.080 -0.1149 2.246 -0.1149
1708782349.4201 2.241 -0.080 -0.1071 2.252 -0.1071
1708782349.4277 2.248 -0.081 -0.0978 2.258 -0.0978
1708782349.4376 2.254 -0.081 -0.0900 2.264 -0.0900
1708782349.4435 2.260 -0.082 -0.0823 2.270 -0.0823
1708782349.4523 2.267 -0.082 -0.0745 2.277 -0.0745
1708782349.4614 2.272 -0.083 -0.0683 2.283 -0.0683
1708782349.4681 2.278 -0.083 -0.0590 2.288 -0.0590
1708782349.4758 2.285 -0.084 -0.0512 2.295 -0.0512
1708782349.4857 2.291 -0.084 -0.0404 2.302 -0.0404
1708782349.4925 2.297 -0.084 -0.0295 2.308 -0.0295
1708782349.4999 2.304 -0.084 -0.0186 2.314 -0.0186
1708782349.5097 2.310 -0.084 -0.0109 2.321 -0.0109
1708782349.5162 2.316 -0.084 -0.0031 2.326 -0.0031
1708782349.5239 2.322 -0.084 0.0031 2.333 0.0031
1708782349.5342 2.328 -0.084 0.0124 2.339 0.0124
1708782349.5396 2.335 -0.084 0.0233 2.345 0.0233
1708782349.5480 2.341 -0.084 0.0310 2.351 0.0310
1708782349.5568 2.346 -0.084 0.0341 2.357 0.0341
1708782349.5644 2.353 -0.084 0.0435 2.363 0.0435
1708782349.5724 2.360 -0.083 0.0543 2.370 0.0543
1708782349.5811 2.366 -0.083 0.0636 2.377 0.0636
1708782349.5876 2.372 -0.082 0.0730 2.383 0.0730
1708782349.5963 2.379 -0.082 0.0807 2.389 0.0807
1708782349.6051 2.384 -0.081 0.0854 2.395 0.0854
1708782349.6117 2.391 -0.081 0.0931 2.402 0.0931
1708782349.6205 2.398 -0.080 0.0993 2.408 0.0993
1708782349.6292 2.404 -0.080 0.1071 2.414 0.1071
1708782349.6358 2.410 -0.079 0.1149 2.420 0.1149
1708782349.6436 2.417 -0.078 0.1195 2.427 0.1195
1708782349.6529 2.423 -0.077 0.1257 2.433 0.1257
1708782349.6594 2.428 -0.077 0.1319 2.439 0.1319
1708782349.6681 2.434 -0.076 0.1366 2.445 0.1366
1708782349.6768 2.441 -0.075 0.1428 2.452 0.1428
1708782349.6844 2.447 -0.074 0.1475 2.458 0.1475
1708782349.6921 2.454 -0.073 0.1537 2.465 0.1537
1708782349.7016 2.459 -0.072 0.1568 2.470 0.1568
1708782349.7080 2.465 -0.071 0.1583 2.476 0.1583
