% Pose without folding and reset (log_20240219_131758.748/log_pose_abs.txt)
% 1 	Time (sec)
% 2,3 	Position x,y (m)
% 4 	heading (rad)
% 5 	Driven distance (m) - signed
% 6 	Turned angle (rad) - signed
1708345078.9444 0.000 0.000 0.0000 0.000 0.0000
1708345078.9519 0.000 0.000 0.0000 0.000 0.0000
1708345078.9592 0.000 0.000 0.0000 0.000 0.0000
1708345078.9679 0.000 0.000 0.0000 0.000 0.0000
1708345078.9750 0.000 0.000 0.0000 0.000 0.0000
1708345078.9832 0.000 0.000 0.0000 0.000 0.0000
1708345078.9909 0.000 0.000 0.0000 0.000 0.0000
1708345078.9997 0.000 0.000 0.0000 0.000 0.0000
1708345079.0077 0.000 0.000 0.0000 0.000 0.0000
1708345079.0154 0.000 0.000 0.0000 0.000 0.0000
1708345079.0238 0.000 0.000 0.0000 0.000 0.0000
1708345079.0311 0.000 0.000 0.0000 0.000 0.0000
1708345079.0400 0.000 0.000 0.0000 0.000 0.0000
1708345079.0473 0.000 0.000 0.0000 0.000 0.0000
1708345079.0559 0.000 0.000 0.0000 0.000 0.0000
1708345079.0636 0.000 0.000 0.0000 0.000 0.0000
1708345079.0717 0.001 0.000 0.0000 0.001 0.0000
1708345079.0799 0.003 0.000 0.0000 0.003 0.0000
1708345079.0876 0.003 0.000 0.0000 0.003 0.0000
1708345079.0955 0.004 0.000 0.0000 0.004 0.0000
1708345079.1033 0.005 0.000 0.0000 0.005 0.0000
1708345079.1121 0.006 0.000 0.0000 0.006 0.0000
1708345079.1191 0.007 0.000 0.0000 0.007 0.0000
1708345079.1274 0.008 0.000 0.0016 0.008 0.0016
1708345079.1351 0.010 0.000 0.0000 0.010 0.0000
1708345079.1430 0.012 0.000 0.0000 0.012 0.0000
1708345079.1519 0.014 0.000 0.0000 0.014 0.0000
1708345079.1595 0.016 0.000 0.0000 0.016 0.0000
1708345079.1677 0.018 0.000 0.0000 0.018 0.0000
1708345079.1759 0.021 0.000 0.0000 0.021 0.0000
1708345079.1834 0.023 0.000 0.0000 0.023 0.0000
1708345079.1916 0.025 0.000 0.0000 0.025 0.0000
1708345079.2004 0.028 0.000 0.0000 0.028 0.0000
1708345079.2070 0.031 0.000 0.0000 0.031 0.0000
1708345079.2152 0.033 0.000 0.0000 0.033 0.0000
1708345079.2234 0.035 0.000 0.0016 0.035 0.0016
1708345079.2319 0.037 0.000 0.0000 0.037 0.0000
1708345079.2400 0.040 0.000 0.0000 0.040 0.0000
1708345079.2471 0.043 0.000 0.0016 0.043 0.0016
1708345079.2556 0.045 0.000 0.0047 0.045 0.0047
1708345079.2638 0.047 0.000 0.0047 0.047 0.0047
1708345079.2720 0.050 0.000 0.0016 0.050 0.0016
1708345079.2794 0.052 0.000 0.0000 0.052 0.0000
1708345079.2876 0.056 0.000 0.0016 0.056 0.0016
1708345079.2957 0.058 0.000 0.0047 0.058 0.0047
1708345079.3031 0.060 0.000 0.0031 0.060 0.0031
1708345079.3119 0.062 0.000 0.0000 0.062 0.0000
1708345079.3199 0.065 0.000 -0.0031 0.065 -0.0031
1708345079.3276 0.068 0.000 -0.0016 0.068 -0.0016
1708345079.3357 0.070 0.000 0.0016 0.070 0.0016
1708345079.3439 0.072 0.000 0.0031 0.072 0.0031
1708345079.3512 0.074 0.000 -0.0031 0.074 -0.0031
1708345079.3593 0.077 0.000 -0.0062 0.077 -0.0062
1708345079.3673 0.079 0.000 -0.0031 0.079 -0.0031
1708345079.3761 0.081 0.000 0.0016 0.081 0.0016
1708345079.3832 0.083 0.000 -0.0016 0.083 -0.0016
1708345079.3913 0.086 0.000 -0.0062 0.086 -0.0062
1708345079.3997 0.089 -0.000 -0.0047 0.089 -0.0047
1708345079.4078 0.091 -0.000 0.0000 0.091 0.0000
1708345079.4158 0.093 -0.000 0.0031 0.093 0.0031
1708345079.4235 0.095 -0.000 -0.0031 0.095 -0.0031
1708345079.4317 0.098 -0.000 -0.0047 0.098 -0.0047
1708345079.4399 0.101 -0.000 -0.0031 0.101 -0.0031
1708345079.4476 0.103 -0.000 0.0000 0.103 0.0000
1708345079.4551 0.105 -0.000 0.0016 0.105 0.0016
1708345079.4633 0.107 -0.000 -0.0016 0.107 -0.0016
1708345079.4710 0.110 -0.000 -0.0031 0.110 -0.0031
1708345079.4793 0.113 -0.000 -0.0031 0.113 -0.0031
1708345079.4874 0.115 -0.000 -0.0016 0.115 -0.0016
1708345079.4951 0.117 -0.000 -0.0016 0.117 -0.0016
1708345079.5037 0.119 -0.000 0.0016 0.119 0.0016
1708345079.5119 0.122 -0.000 0.0016 0.122 0.0016
1708345079.5196 0.125 -0.000 -0.0016 0.125 -0.0016
1708345079.5278 0.127 -0.000 -0.0031 0.127 -0.0031
1708345079.5360 0.129 -0.000 0.0000 0.129 0.0000
1708345079.5435 0.131 -0.000 0.0047 0.131 0.0047
1708345079.5513 0.134 -0.000 0.0031 0.134 0.0031
1708345079.5594 0.136 -0.000 -0.0016 0.136 -0.0016
1708345079.5671 0.138 -0.000 -0.0031 0.138 -0.0031
1708345079.5752 0.141 -0.000 0.0016 0.141 0.0016
1708345079.5835 0.143 -0.000 0.0062 0.143 0.0062
1708345079.5911 0.146 -0.000 0.0031 0.146 0.0031
1708345079.5999 0.148 -0.000 -0.0016 0.148 -0.0016
1708345079.6071 0.151 -0.000 -0.0031 0.151 -0.0031
1708345079.6158 0.153 -0.000 0.0031 0.153 0.0031
1708345079.6239 0.156 -0.000 0.0078 0.156 0.0078
1708345079.6311 0.158 0.000 0.0031 0.158 0.0031
1708345079.6396 0.160 0.000 -0.0016 0.160 -0.0016
1708345079.6478 0.162 0.000 -0.0016 0.162 -0.0016
1708345079.6556 0.165 0.000 0.0016 0.165 0.0016
1708345079.6633 0.167 0.000 0.0031 0.167 0.0031
1708345079.6715 0.170 0.000 0.0016 0.170 0.0016
1708345079.6795 0.172 0.000 0.0016 0.172 0.0016
1708345079.6872 0.174 0.000 0.0016 0.174 0.0016
1708345079.6953 0.177 0.000 0.0000 0.177 0.0000
1708345079.7031 0.179 0.000 0.0016 0.179 0.0016
1708345079.7119 0.182 0.000 0.0031 0.182 0.0031
1708345079.7201 0.184 0.000 0.0047 0.184 0.0047
1708345079.7280 0.186 0.000 0.0016 0.186 0.0016
1708345079.7357 0.189 0.000 -0.0016 0.189 -0.0016
1708345079.7439 0.192 0.000 -0.0016 0.192 -0.0016
1708345079.7517 0.194 0.000 0.0031 0.194 0.0031
1708345079.7594 0.196 0.000 0.0016 0.196 0.0016
1708345079.7682 0.198 0.000 0.0000 0.198 0.0000
1708345079.7753 0.201 0.000 -0.0016 0.201 -0.0016
1708345079.7840 0.204 0.000 0.0000 0.204 0.0000
1708345079.7924 0.206 0.000 0.0016 0.206 0.0016
1708345079.8013 0.208 0.000 0.0016 0.208 0.0016
1708345079.8084 0.210 0.000 0.0016 0.210 0.0016
1708345079.8163 0.213 0.000 0.0016 0.213 0.0016
1708345079.8236 0.216 0.000 0.0016 0.216 0.0016
1708345079.8312 0.218 0.000 0.0016 0.218 0.0016
1708345079.8395 0.219 0.000 0.0016 0.219 0.0016
1708345079.8479 0.222 0.000 0.0031 0.222 0.0031
1708345079.8559 0.225 0.000 0.0031 0.225 0.0031
1708345079.8638 0.228 0.000 0.0016 0.228 0.0016
1708345079.8710 0.230 0.000 0.0000 0.230 0.0000
1708345079.8798 0.232 0.000 0.0000 0.232 0.0000
1708345079.8879 0.234 0.000 0.0016 0.234 0.0016
1708345079.8961 0.237 0.000 0.0031 0.237 0.0031
1708345079.9031 0.240 0.000 0.0016 0.240 0.0016
1708345079.9114 0.242 0.000 0.0016 0.242 0.0016
1708345079.9196 0.243 0.000 0.0000 0.243 0.0000
1708345079.9273 0.245 0.000 0.0000 0.245 0.0000
1708345079.9354 0.248 0.000 0.0016 0.248 0.0016
1708345079.9437 0.251 0.000 0.0016 0.251 0.0016
1708345079.9519 0.253 0.000 0.0016 0.253 0.0016
1708345079.9600 0.255 0.000 0.0000 0.255 0.0000
1708345079.9671 0.257 0.000 0.0016 0.257 0.0016
1708345079.9759 0.260 0.000 0.0016 0.260 0.0016
1708345079.9840 0.263 0.000 0.0000 0.263 0.0000
1708345079.9912 0.265 0.000 0.0016 0.265 0.0016
1708345080.0003 0.267 0.000 0.0016 0.267 0.0016
1708345080.0073 0.270 0.000 -0.0016 0.270 -0.0016
1708345080.0155 0.273 0.000 0.0000 0.273 0.0000
1708345080.0232 0.274 0.000 0.0016 0.274 0.0016
1708345080.0313 0.276 0.000 0.0000 0.276 0.0000
1708345080.0394 0.279 0.000 0.0000 0.279 0.0000
1708345080.0472 0.282 0.000 0.0000 0.282 0.0000
1708345080.0560 0.285 0.000 0.0016 0.285 0.0016
1708345080.0631 0.286 0.000 0.0016 0.286 0.0016
1708345080.0718 0.289 0.000 0.0000 0.289 0.0000
1708345080.0800 0.291 0.000 -0.0016 0.291 -0.0016
1708345080.0880 0.294 0.000 -0.0016 0.294 -0.0016
1708345080.0956 0.297 0.000 0.0000 0.297 0.0000
1708345080.1034 0.299 0.000 0.0000 0.299 0.0000
1708345080.1116 0.301 0.000 0.0000 0.301 0.0000
1708345080.1193 0.303 0.000 -0.0016 0.303 -0.0016
1708345080.1275 0.306 0.000 -0.0016 0.306 -0.0016
1708345080.1355 0.309 0.000 0.0000 0.309 0.0000
1708345080.1432 0.311 0.000 0.0000 0.311 0.0000
1708345080.1520 0.313 0.000 0.0000 0.313 0.0000
1708345080.1591 0.316 0.000 -0.0031 0.316 -0.0031
1708345080.1679 0.319 0.000 -0.0031 0.319 -0.0031
1708345080.1759 0.321 0.000 -0.0016 0.321 -0.0016
1708345080.1841 0.323 0.000 0.0000 0.323 0.0000
1708345080.1917 0.325 0.000 0.0016 0.325 0.0016
1708345080.1995 0.328 0.000 0.0016 0.328 0.0016
1708345080.2077 0.331 0.000 -0.0016 0.331 -0.0016
1708345080.2154 0.332 0.000 -0.0047 0.332 -0.0047
1708345080.2234 0.334 0.000 -0.0031 0.334 -0.0031
1708345080.2316 0.336 0.000 0.0000 0.336 0.0000
1708345080.2394 0.339 0.000 0.0000 0.339 0.0000
1708345080.2475 0.342 0.000 -0.0031 0.342 -0.0031
1708345080.2553 0.344 0.000 -0.0047 0.344 -0.0047
1708345080.2638 0.346 0.000 -0.0016 0.346 -0.0016
1708345080.2720 0.349 0.000 0.0031 0.349 0.0031
1708345080.2791 0.352 0.000 0.0016 0.352 0.0016
1708345080.2879 0.354 0.000 -0.0031 0.354 -0.0031
1708345080.2961 0.356 0.000 -0.0031 0.356 -0.0031
1708345080.3038 0.358 0.000 0.0031 0.358 0.0031
1708345080.3120 0.360 0.000 0.0078 0.360 0.0078
1708345080.3192 0.363 0.000 0.0078 0.363 0.0078
1708345080.3274 0.366 0.000 0.0062 0.366 0.0062
1708345080.3361 0.368 0.000 0.0078 0.368 0.0078
1708345080.3432 0.370 0.000 0.0155 0.370 0.0155
1708345080.3520 0.373 0.000 0.0202 0.373 0.0202
1708345080.3595 0.375 0.000 0.0217 0.375 0.0217
1708345080.3676 0.377 0.000 0.0248 0.377 0.0248
1708345080.3758 0.379 0.000 0.0341 0.379 0.0341
1708345080.3836 0.382 0.000 0.0419 0.382 0.0419
1708345080.3917 0.385 0.001 0.0481 0.385 0.0481
1708345080.4003 0.387 0.001 0.0559 0.387 0.0559
1708345080.4080 0.389 0.001 0.0636 0.389 0.0636
1708345080.4151 0.392 0.001 0.0745 0.392 0.0745
1708345080.4232 0.394 0.001 0.0885 0.394 0.0885
1708345080.4320 0.396 0.001 0.0962 0.396 0.0962
1708345080.4391 0.398 0.002 0.1071 0.398 0.1071
1708345080.4471 0.401 0.002 0.1242 0.401 0.1242
1708345080.4555 0.403 0.002 0.1366 0.403 0.1366
1708345080.4636 0.405 0.003 0.1475 0.405 0.1475
1708345080.4719 0.408 0.003 0.1630 0.408 0.1630
1708345080.4795 0.410 0.003 0.1785 0.410 0.1785
1708345080.4877 0.412 0.004 0.1940 0.412 0.1940
1708345080.4957 0.415 0.004 0.2096 0.415 0.2096
1708345080.5040 0.417 0.005 0.2266 0.418 0.2266
1708345080.5111 0.419 0.005 0.2453 0.420 0.2453
1708345080.5194 0.422 0.006 0.2623 0.422 0.2623
1708345080.5271 0.424 0.007 0.2763 0.424 0.2763
1708345080.5361 0.426 0.007 0.2887 0.427 0.2887
1708345080.5432 0.429 0.008 0.3042 0.430 0.3042
1708345080.5516 0.432 0.009 0.3260 0.433 0.3260
1708345080.5598 0.434 0.010 0.3399 0.435 0.3399
1708345080.5680 0.436 0.010 0.3493 0.437 0.3493
1708345080.5758 0.438 0.011 0.3617 0.440 0.3617
1708345080.5837 0.441 0.012 0.3788 0.442 0.3787
1708345080.5919 0.443 0.013 0.3943 0.445 0.3943
1708345080.6003 0.445 0.014 0.4067 0.447 0.4067
1708345080.6074 0.447 0.015 0.4176 0.449 0.4176
1708345080.6156 0.450 0.016 0.4315 0.452 0.4315
1708345080.6232 0.452 0.017 0.4424 0.454 0.4424
1708345080.6313 0.454 0.018 0.4548 0.456 0.4548
1708345080.6395 0.455 0.019 0.4657 0.458 0.4657
1708345080.6471 0.458 0.020 0.4750 0.461 0.4750
1708345080.6559 0.460 0.021 0.4843 0.464 0.4843
1708345080.6631 0.462 0.022 0.4921 0.466 0.4921
1708345080.6717 0.464 0.023 0.5029 0.468 0.5029
1708345080.6799 0.466 0.025 0.5107 0.471 0.5107
1708345080.6881 0.469 0.026 0.5185 0.473 0.5185
1708345080.6959 0.471 0.027 0.5247 0.476 0.5247
1708345080.7036 0.472 0.028 0.5324 0.478 0.5324
1708345080.7118 0.474 0.029 0.5417 0.480 0.5417
1708345080.7192 0.477 0.031 0.5479 0.483 0.5479
1708345080.7274 0.479 0.032 0.5557 0.485 0.5557
1708345080.7357 0.480 0.033 0.5604 0.487 0.5604
1708345080.7435 0.482 0.034 0.5635 0.489 0.5635
1708345080.7513 0.485 0.036 0.5697 0.492 0.5697
1708345080.7592 0.487 0.037 0.5774 0.495 0.5774
1708345080.7680 0.489 0.038 0.5852 0.497 0.5852
1708345080.7751 0.490 0.040 0.5899 0.499 0.5899
1708345080.7833 0.493 0.041 0.5930 0.502 0.5930
1708345080.7921 0.495 0.042 0.5961 0.504 0.5961
1708345080.7998 0.497 0.044 0.6023 0.507 0.6023
1708345080.8075 0.499 0.045 0.6116 0.509 0.6116
1708345080.8153 0.501 0.046 0.6162 0.511 0.6162
1708345080.8235 0.503 0.048 0.6193 0.514 0.6193
1708345080.8316 0.505 0.049 0.6225 0.516 0.6225
1708345080.8393 0.506 0.051 0.6318 0.518 0.6318
1708345080.8475 0.508 0.052 0.6411 0.521 0.6411
1708345080.8551 0.510 0.053 0.6426 0.523 0.6426
1708345080.8638 0.512 0.055 0.6442 0.526 0.6442
1708345080.8720 0.514 0.056 0.6519 0.528 0.6519
1708345080.8791 0.516 0.058 0.6628 0.531 0.6628
1708345080.8879 0.518 0.059 0.6675 0.533 0.6675
1708345080.8958 0.519 0.061 0.6675 0.535 0.6675
1708345080.9036 0.522 0.062 0.6706 0.538 0.6706
1708345080.9112 0.524 0.064 0.6783 0.540 0.6783
1708345080.9194 0.525 0.065 0.6908 0.543 0.6908
1708345080.9277 0.527 0.067 0.6970 0.544 0.6970
1708345080.9354 0.529 0.068 0.6985 0.547 0.6985
1708345080.9434 0.531 0.070 0.7016 0.549 0.7016
1708345080.9512 0.533 0.071 0.7094 0.552 0.7094
1708345080.9600 0.535 0.073 0.7171 0.554 0.7171
1708345080.9672 0.536 0.074 0.7249 0.556 0.7249
1708345080.9755 0.538 0.076 0.7311 0.558 0.7311
1708345080.9842 0.540 0.078 0.7327 0.561 0.7327
1708345080.9913 0.542 0.080 0.7358 0.564 0.7358
1708345081.0002 0.543 0.081 0.7435 0.566 0.7435
1708345081.0078 0.545 0.082 0.7513 0.568 0.7513
1708345081.0160 0.546 0.084 0.7575 0.570 0.7575
1708345081.0231 0.548 0.086 0.7606 0.573 0.7606
1708345081.0317 0.551 0.088 0.7622 0.576 0.7622
1708345081.0399 0.552 0.089 0.7684 0.578 0.7684
1708345081.0481 0.553 0.091 0.7761 0.580 0.7761
1708345081.0554 0.555 0.092 0.7823 0.583 0.7823
1708345081.0635 0.557 0.094 0.7823 0.585 0.7823
1708345081.0717 0.559 0.096 0.7839 0.587 0.7839
1708345081.0792 0.560 0.097 0.7885 0.590 0.7885
1708345081.0873 0.562 0.099 0.7932 0.592 0.7932
1708345081.0955 0.564 0.101 0.7948 0.595 0.7948
1708345081.1040 0.565 0.103 0.7948 0.597 0.7948
1708345081.1111 0.567 0.104 0.7979 0.599 0.7979
1708345081.1191 0.569 0.106 0.8010 0.602 0.8010
1708345081.1279 0.571 0.108 0.8025 0.605 0.8025
1708345081.1361 0.572 0.110 0.8041 0.607 0.8041
1708345081.1433 0.574 0.111 0.8072 0.609 0.8072
1708345081.1516 0.576 0.113 0.8087 0.612 0.8087
1708345081.1598 0.577 0.115 0.8072 0.614 0.8072
1708345081.1678 0.579 0.117 0.8087 0.617 0.8087
1708345081.1755 0.580 0.118 0.8118 0.619 0.8118
1708345081.1837 0.582 0.120 0.8134 0.622 0.8134
1708345081.1919 0.584 0.122 0.8103 0.624 0.8103
1708345081.2004 0.585 0.123 0.8087 0.626 0.8087
1708345081.2075 0.587 0.125 0.8134 0.628 0.8134
1708345081.2155 0.589 0.127 0.8149 0.631 0.8149
1708345081.2232 0.591 0.129 0.8134 0.634 0.8134
1708345081.2313 0.592 0.130 0.8087 0.636 0.8087
1708345081.2396 0.594 0.132 0.8087 0.638 0.8087
1708345081.2473 0.595 0.134 0.8087 0.641 0.8087
1708345081.2558 0.597 0.136 0.8103 0.643 0.8103
1708345081.2641 0.599 0.137 0.8087 0.645 0.8087
1708345081.2718 0.600 0.139 0.8025 0.647 0.8025
1708345081.2800 0.602 0.141 0.8041 0.650 0.8041
1708345081.2871 0.603 0.142 0.8072 0.652 0.8072
1708345081.2959 0.605 0.144 0.8072 0.655 0.8072
1708345081.3034 0.607 0.146 0.8010 0.657 0.8010
1708345081.3113 0.609 0.148 0.7963 0.660 0.7963
1708345081.3201 0.610 0.149 0.7963 0.662 0.7963
1708345081.3271 0.612 0.151 0.7994 0.664 0.7994
1708345081.3354 0.614 0.153 0.8025 0.667 0.8025
1708345081.3439 0.615 0.155 0.7963 0.669 0.7963
1708345081.3517 0.617 0.156 0.7901 0.672 0.7901
1708345081.3600 0.618 0.158 0.7885 0.674 0.7885
1708345081.3677 0.620 0.159 0.7948 0.676 0.7948
1708345081.3759 0.622 0.161 0.7948 0.679 0.7948
1708345081.3831 0.624 0.163 0.7901 0.681 0.7901
1708345081.3917 0.625 0.165 0.7854 0.683 0.7854
1708345081.4004 0.627 0.166 0.7823 0.685 0.7823
1708345081.4076 0.628 0.168 0.7839 0.688 0.7839
1708345081.4153 0.631 0.170 0.7823 0.691 0.7823
1708345081.4235 0.632 0.172 0.7808 0.693 0.7808
1708345081.4317 0.634 0.173 0.7792 0.695 0.7792
1708345081.4392 0.635 0.174 0.7761 0.697 0.7761
1708345081.4474 0.637 0.176 0.7746 0.700 0.7746
1708345081.4552 0.639 0.179 0.7730 0.703 0.7730
1708345081.4641 0.641 0.180 0.7699 0.705 0.7699
1708345081.4712 0.642 0.181 0.7699 0.707 0.7699
1708345081.4791 0.644 0.183 0.7684 0.709 0.7684
1708345081.4880 0.646 0.185 0.7653 0.712 0.7653
1708345081.4951 0.648 0.186 0.7622 0.715 0.7622
1708345081.5040 0.649 0.188 0.7591 0.717 0.7591
1708345081.5117 0.650 0.189 0.7575 0.719 0.7575
1708345081.5198 0.652 0.191 0.7591 0.721 0.7591
1708345081.5278 0.654 0.193 0.7575 0.724 0.7575
1708345081.5355 0.656 0.195 0.7528 0.727 0.7528
1708345081.5437 0.658 0.196 0.7497 0.729 0.7497
1708345081.5515 0.659 0.197 0.7513 0.730 0.7513
1708345081.5593 0.661 0.199 0.7528 0.733 0.7528
1708345081.5674 0.663 0.201 0.7528 0.736 0.7528
1708345081.5754 0.665 0.203 0.7451 0.738 0.7451
1708345081.5831 0.666 0.204 0.7404 0.740 0.7404
1708345081.5913 0.668 0.205 0.7420 0.742 0.7420
1708345081.6002 0.670 0.207 0.7466 0.745 0.7466
1708345081.6079 0.672 0.209 0.7435 0.748 0.7435
1708345081.6159 0.674 0.211 0.7389 0.750 0.7389
1708345081.6231 0.675 0.212 0.7358 0.753 0.7358
1708345081.6319 0.677 0.214 0.7420 0.755 0.7420
1708345081.6400 0.678 0.215 0.7435 0.757 0.7435
1708345081.6471 0.680 0.217 0.7389 0.759 0.7389
1708345081.6556 0.682 0.219 0.7358 0.762 0.7358
1708345081.6635 0.684 0.220 0.7373 0.764 0.7373
1708345081.6717 0.686 0.222 0.7404 0.767 0.7404
1708345081.6795 0.687 0.223 0.7373 0.769 0.7373
1708345081.6877 0.689 0.225 0.7311 0.772 0.7311
1708345081.6959 0.691 0.227 0.7311 0.774 0.7311
1708345081.7040 0.693 0.228 0.7342 0.776 0.7342
1708345081.7111 0.695 0.230 0.7342 0.779 0.7342
1708345081.7194 0.696 0.232 0.7296 0.781 0.7296
1708345081.7271 0.698 0.233 0.7218 0.784 0.7218
1708345081.7353 0.700 0.235 0.7234 0.786 0.7234
1708345081.7435 0.702 0.236 0.7265 0.788 0.7265
1708345081.7517 0.704 0.238 0.7265 0.791 0.7265
1708345081.7599 0.706 0.240 0.7218 0.793 0.7218
1708345081.7681 0.708 0.241 0.7156 0.796 0.7156
1708345081.7759 0.709 0.243 0.7171 0.798 0.7171
1708345081.7841 0.711 0.244 0.7234 0.800 0.7234
1708345081.7912 0.713 0.246 0.7218 0.803 0.7218
1708345081.8003 0.714 0.247 0.7156 0.805 0.7156
1708345081.8071 0.716 0.249 0.7094 0.807 0.7094
1708345081.8154 0.718 0.250 0.7094 0.809 0.7094
1708345081.8241 0.719 0.252 0.7140 0.812 0.7140
1708345081.8312 0.721 0.253 0.7140 0.814 0.7140
1708345081.8391 0.723 0.255 0.7109 0.817 0.7109
1708345081.8480 0.725 0.257 0.7078 0.819 0.7078
1708345081.8558 0.727 0.258 0.7094 0.821 0.7094
1708345081.8641 0.729 0.260 0.7109 0.824 0.7109
1708345081.8718 0.731 0.261 0.7078 0.826 0.7078
1708345081.8799 0.732 0.263 0.7032 0.829 0.7032
1708345081.8879 0.734 0.264 0.7032 0.831 0.7032
1708345081.8956 0.736 0.266 0.7094 0.833 0.7094
1708345081.9033 0.738 0.267 0.7094 0.836 0.7094
1708345081.9116 0.740 0.269 0.7047 0.838 0.7047
1708345081.9194 0.742 0.271 0.7001 0.841 0.7001
1708345081.9275 0.743 0.272 0.7032 0.843 0.7032
1708345081.9356 0.745 0.274 0.7063 0.845 0.7063
1708345081.9432 0.747 0.275 0.7047 0.848 0.7047
1708345081.9520 0.749 0.277 0.6985 0.850 0.6985
1708345081.9592 0.751 0.278 0.6954 0.853 0.6954
1708345081.9680 0.753 0.280 0.7016 0.855 0.7016
1708345081.9760 0.754 0.281 0.7063 0.858 0.7063
1708345081.9831 0.756 0.283 0.7047 0.860 0.7047
1708345081.9919 0.758 0.285 0.6985 0.862 0.6985
1708345082.0007 0.760 0.286 0.6970 0.865 0.6970
1708345082.0078 0.762 0.288 0.7001 0.867 0.7001
1708345082.0155 0.764 0.290 0.7047 0.870 0.7047
1708345082.0234 0.765 0.291 0.7016 0.872 0.7016
1708345082.0316 0.767 0.292 0.6970 0.875 0.6970
1708345082.0394 0.769 0.294 0.6970 0.877 0.6970
1708345082.0476 0.771 0.296 0.7016 0.880 0.7016
1708345082.0553 0.773 0.297 0.7047 0.882 0.7047
1708345082.0639 0.775 0.299 0.7032 0.884 0.7032
1708345082.0720 0.777 0.300 0.6985 0.887 0.6985
1708345082.0792 0.779 0.302 0.7001 0.889 0.7001
1708345082.0879 0.780 0.303 0.7078 0.892 0.7078
1708345082.0961 0.782 0.305 0.7109 0.894 0.7109
1708345082.1039 0.784 0.306 0.7078 0.896 0.7078
1708345082.1114 0.786 0.308 0.7078 0.899 0.7078
1708345082.1196 0.788 0.310 0.7125 0.901 0.7125
1708345082.1278 0.789 0.311 0.7187 0.903 0.7187
1708345082.1355 0.791 0.312 0.7187 0.905 0.7187
1708345082.1438 0.793 0.314 0.7171 0.908 0.7171
1708345082.1516 0.795 0.316 0.7202 0.911 0.7202
1708345082.1591 0.796 0.317 0.7218 0.913 0.7218
1708345082.1673 0.798 0.319 0.7249 0.915 0.7249
1708345082.1755 0.800 0.321 0.7265 0.918 0.7265
1708345082.1833 0.802 0.322 0.7249 0.920 0.7249
1708345082.1915 0.803 0.324 0.7296 0.922 0.7296
1708345082.2001 0.805 0.325 0.7342 0.924 0.7342
1708345082.2079 0.807 0.326 0.7342 0.927 0.7342
1708345082.2161 0.809 0.328 0.7296 0.929 0.7296
