% Encoder logfile
% 1 	Time (sec)
% 2,3 	enc left, right
% 4,5 	encoder change left, right
1708772810.7786 0 0 0 0
1708772810.7863 0 0 0 0
1708772810.7936 0 0 0 0
1708772810.8013 0 0 0 0
1708772810.8093 0 0 0 0
1708772810.8174 0 0 0 0
1708772810.8249 0 0 0 0
1708772810.8329 0 0 0 0
1708772810.8414 0 0 0 0
1708772810.8490 0 0 0 0
1708772810.8573 0 0 0 0
1708772810.8645 0 0 0 0
1708772810.8732 0 0 0 0
1708772810.8815 0 0 0 0
1708772810.8890 0 0 0 0
1708772810.8965 1 1 1 1
1708772810.9057 5 5 4 4
1708772810.9130 12 11 7 6
1708772810.9207 16 14 4 3
1708772810.9298 17 16 1 2
1708772810.9367 20 19 3 3
1708772810.9449 24 25 4 6
1708772810.9536 29 30 5 5
1708772810.9612 34 35 5 5
1708772810.9685 40 41 6 6
1708772810.9782 45 47 5 6
1708772810.9855 52 55 7 8
1708772810.9927 60 62 8 7
1708772811.0012 66 69 6 7
1708772811.0087 74 78 8 9
1708772811.0170 82 87 8 9
1708772811.0257 90 95 8 8
1708772811.0332 99 105 9 10
1708772811.0414 108 114 9 9
1708772811.0501 117 122 9 8
1708772811.0567 126 131 9 9
1708772811.0650 136 141 10 10
1708772811.0735 143 151 7 10
1708772811.0809 151 159 8 8
1708772811.0895 160 166 9 7
1708772811.0977 171 176 11 10
1708772811.1051 182 186 11 10
1708772811.1129 191 196 9 10
1708772811.1213 197 203 6 7
1708772811.1286 205 211 8 8
1708772811.1372 216 221 11 10
1708772811.1456 225 230 9 9
1708772811.1528 234 238 9 8
1708772811.1607 243 246 9 8
1708772811.1691 251 253 8 7
1708772811.1765 260 261 9 8
1708772811.1911 269 270 9 9
1708772811.1963 278 278 9 8
1708772811.2014 287 286 9 8
1708772811.2093 295 294 8 8
1708772811.2176 300 299 5 5
1708772811.2251 308 305 8 6
1708772811.2332 319 315 11 10
1708772811.2410 329 325 10 10
1708772811.2490 336 333 7 8
1708772811.2568 343 339 7 6
1708772811.2653 352 345 9 6
1708772811.2725 362 353 10 8
1708772811.2808 371 362 9 9
1708772811.2893 378 370 7 8
1708772811.2974 386 376 8 6
1708772811.3066 396 384 10 8
1708772811.3130 406 393 10 9
1708772811.3208 415 401 9 8
1708772811.3286 421 406 6 5
1708772811.3374 427 413 6 7
1708772811.3471 437 422 10 9
1708772811.3527 449 433 12 11
1708772811.3617 459 442 10 9
1708772811.3695 465 447 6 5
1708772811.3772 471 454 6 7
1708772811.3858 481 464 10 10
1708772811.3930 492 474 11 10
1708772811.4007 501 483 9 9
1708772811.4092 507 489 6 6
1708772811.4167 514 495 7 6
1708772811.4251 524 504 10 9
1708772811.4335 535 515 11 11
1708772811.4409 544 524 9 9
1708772811.4488 550 532 6 8
1708772811.4572 556 538 6 6
1708772811.4646 565 546 9 8
1708772811.4729 576 556 11 10
1708772811.4813 585 564 9 8
1708772811.4892 591 571 6 7
1708772811.4971 599 580 8 9
1708772811.5054 609 589 10 9
1708772811.5139 619 597 10 8
1708772811.5208 627 604 8 7
1708772811.5290 634 614 7 10
1708772811.5369 640 623 6 9
1708772811.5448 649 630 9 7
1708772811.5531 659 637 10 7
1708772811.5613 668 647 9 10
1708772811.5692 675 657 7 10
1708772811.5775 682 664 7 7
1708772811.5854 691 672 9 8
1708772811.5932 701 682 10 10
1708772811.6015 710 692 9 10
1708772811.6087 717 700 7 8
1708772811.6172 724 707 7 7
1708772811.6255 733 714 9 7
1708772811.6329 743 723 10 9
1708772811.6415 752 734 9 11
1708772811.6500 758 742 6 8
1708772811.6574 766 749 8 7
1708772811.6653 776 758 10 9
1708772811.6736 785 767 9 9
1708772811.6808 793 777 8 10
1708772811.6885 800 785 7 8
1708772811.6977 808 792 8 7
1708772811.7049 818 801 10 9
1708772811.7128 828 811 10 10
1708772811.7213 836 819 8 8
1708772811.7286 843 827 7 8
1708772811.7372 851 836 8 9
1708772811.7453 860 844 9 8
1708772811.7527 870 852 10 8
1708772811.7605 879 861 9 9
1708772811.7699 885 870 6 9
1708772811.7772 892 877 7 7
1708772811.7895 901 886 9 9
1708772811.7941 912 896 11 10
1708772811.8010 923 906 11 10
1708772811.8093 927 912 4 6
1708772811.8188 931 916 4 4
1708772811.8252 938 923 7 7
1708772811.8355 949 934 11 11
1708772811.8429 959 944 10 10
1708772811.8486 967 952 8 8
1708772811.8581 973 958 6 6
1708772811.8659 978 963 5 5
1708772811.8738 985 971 7 8
1708772811.8810 996 982 11 11
1708772811.8899 1007 991 11 9
1708772811.8973 1014 997 7 6
1708772811.9051 1020 1004 6 7
1708772811.9136 1027 1013 7 9
1708772811.9207 1037 1023 10 10
1708772811.9285 1048 1031 11 8
1708772811.9376 1056 1038 8 7
1708772811.9449 1065 1048 9 10
1708772811.9533 1074 1057 9 9
1708772811.9617 1080 1064 6 7
1708772811.9693 1087 1072 7 8
1708772811.9772 1096 1081 9 9
1708772811.9852 1105 1091 9 10
1708772811.9925 1113 1099 8 8
1708772812.0005 1119 1107 6 8
1708772812.0099 1127 1116 8 9
1708772812.0172 1136 1126 9 10
1708772812.0245 1146 1136 10 10
1708772812.0340 1153 1143 7 7
1708772812.0410 1158 1150 5 7
1708772812.0491 1166 1159 8 9
1708772812.0574 1175 1170 9 11
1708772812.0648 1183 1180 8 10
1708772812.0731 1189 1187 6 7
1708772812.0814 1196 1195 7 8
1708772812.0886 1204 1205 8 10
1708772812.0965 1213 1216 9 11
1708772812.1058 1220 1224 7 8
1708772812.1130 1226 1231 6 7
1708772812.1213 1233 1241 7 10
1708772812.1300 1242 1252 9 11
1708772812.1373 1251 1262 9 10
1708772812.1451 1259 1270 8 8
1708772812.1534 1264 1278 5 8
1708772812.1607 1270 1287 6 9
1708772812.1686 1278 1299 8 12
1708772812.1780 1286 1308 8 9
1708772812.1848 1293 1316 7 8
1708772812.1929 1301 1325 8 9
1708772812.2016 1308 1336 7 11
1708772812.2092 1315 1347 7 11
1708772812.2173 1323 1355 8 8
1708772812.2256 1331 1363 8 8
1708772812.2337 1339 1373 8 10
1708772812.2412 1345 1384 6 11
1708772812.2497 1351 1394 6 10
1708772812.2570 1359 1402 8 8
1708772812.2649 1369 1411 10 9
1708772812.2739 1377 1421 8 10
1708772812.2812 1382 1431 5 10
1708772812.2891 1389 1441 7 10
1708772812.2974 1398 1449 9 8
1708772812.3048 1408 1457 10 8
1708772812.3126 1416 1466 8 9
1708772812.3219 1421 1476 5 10
1708772812.3291 1428 1485 7 9
1708772812.3369 1438 1494 10 9
1708772812.3453 1448 1503 10 9
1708772812.3527 1455 1510 7 7
1708772812.3605 1461 1519 6 9
1708772812.3696 1470 1529 9 10
1708772812.3769 1480 1538 10 9
1708772812.3855 1489 1546 9 8
1708772812.3939 1495 1554 6 8
1708772812.4012 1503 1564 8 10
1708772812.4091 1513 1573 10 9
1708772812.4172 1523 1581 10 8
1708772812.4245 1530 1587 7 6
1708772812.4335 1537 1596 7 9
1708772812.4413 1545 1606 8 10
1708772812.4485 1556 1615 11 9
1708772812.4575 1566 1622 10 7
1708772812.4657 1573 1629 7 7
1708772812.4725 1580 1637 7 8
1708772812.4805 1590 1647 10 10
1708772812.4894 1600 1655 10 8
1708772812.4967 1608 1661 8 6
1708772812.5054 1617 1669 9 8
1708772812.5137 1626 1679 9 10
1708772812.5213 1635 1689 9 10
1708772812.5292 1645 1697 10 8
1708772812.5371 1653 1704 8 7
1708772812.5455 1661 1711 8 7
1708772812.5534 1670 1720 9 9
1708772812.5616 1680 1730 10 10
1708772812.5689 1689 1737 9 7
1708772812.5770 1697 1744 8 7
1708772812.5859 1704 1752 7 8
1708772812.5931 1713 1761 9 9
1708772812.6011 1723 1771 10 10
1708772812.6094 1732 1778 9 7
1708772812.6169 1740 1785 8 7
1708772812.6252 1749 1793 9 8
1708772812.6336 1759 1801 10 8
1708772812.6415 1769 1810 10 9
1708772812.6494 1777 1818 8 8
1708772812.6577 1785 1825 8 7
1708772812.6651 1794 1833 9 8
1708772812.6730 1804 1841 10 8
1708772812.6812 1812 1849 8 8
1708772812.6892 1819 1856 7 7
1708772812.6973 1828 1865 9 9
1708772812.7055 1838 1874 10 9
1708772812.7132 1848 1883 10 9
1708772812.7212 1856 1890 8 7
1708772812.7293 1862 1896 6 6
1708772812.7372 1871 1904 9 8
1708772812.7450 1882 1914 11 10
1708772812.7533 1892 1922 10 8
1708772812.7607 1899 1929 7 7
1708772812.7685 1907 1937 8 8
1708772812.7775 1917 1946 10 9
1708772812.7846 1927 1954 10 8
1708772812.7930 1936 1961 9 7
1708772812.8018 1943 1968 7 7
1708772812.8090 1952 1976 9 8
1708772812.8170 1961 1986 9 10
1708772812.8252 1970 1993 9 7
1708772812.8325 1978 2000 8 7
1708772812.8410 1988 2008 10 8
1708772812.8495 1997 2018 9 10
1708772812.8569 2006 2027 9 9
1708772812.8646 2014 2035 8 8
1708772812.8740 2023 2042 9 7
1708772812.8812 2032 2049 9 7
1708772812.8886 2042 2059 10 10
1708772812.8979 2050 2068 8 9
1708772812.9053 2057 2075 7 7
1708772812.9131 2065 2085 8 10
1708772812.9216 2075 2094 10 9
1708772812.9289 2085 2101 10 7
1708772812.9375 2094 2108 9 7
1708772812.9459 2102 2116 8 8
1708772812.9533 2110 2125 8 9
1708772812.9614 2119 2135 9 10
1708772812.9697 2129 2142 10 7
1708772812.9771 2137 2149 8 7
1708772812.9850 2145 2157 8 8
1708772812.9934 2153 2166 8 9
1708772813.0007 2162 2176 9 10
1708772813.0088 2173 2183 11 7
1708772813.0171 2181 2190 8 7
1708772813.0245 2188 2198 7 8
1708772813.0325 2196 2208 8 10
1708772813.0415 2207 2216 11 8
1708772813.0491 2217 2223 10 7
1708772813.0573 2225 2231 8 8
1708772813.0660 2232 2240 7 9
1708772813.0733 2240 2250 8 10
1708772813.0812 2250 2257 10 7
1708772813.0900 2259 2263 9 6
1708772813.0974 2267 2271 8 8
1708772813.1053 2275 2281 8 10
1708772813.1136 2283 2291 8 10
1708772813.1212 2293 2299 10 8
1708772813.1290 2303 2306 10 7
1708772813.1378 2310 2313 7 7
1708772813.1452 2317 2322 7 9
1708772813.1532 2325 2332 8 10
1708772813.1615 2335 2340 10 8
1708772813.1689 2345 2347 10 7
1708772813.1767 2353 2355 8 8
1708772813.1855 2360 2365 7 10
1708772813.1929 2369 2373 9 8
1708772813.2008 2379 2380 10 7
1708772813.2097 2387 2387 8 7
1708772813.2171 2395 2396 8 9
1708772813.2249 2403 2406 8 10
1708772813.2332 2412 2414 9 8
1708772813.2414 2422 2420 10 6
1708772813.2492 2430 2428 8 8
1708772813.2576 2439 2437 9 9
1708772813.2650 2448 2447 9 10
1708772813.2725 2457 2456 9 9
1708772813.2819 2463 2463 6 7
1708772813.2887 2469 2470 6 7
1708772813.2965 2478 2479 9 9
1708772813.3059 2489 2488 11 9
1708772813.3132 2498 2496 9 8
1708772813.3215 2505 2505 7 9
1708772813.3298 2511 2514 6 9
1708772813.3367 2522 2522 11 8
1708772813.3445 2531 2530 9 8
1708772813.3538 2538 2537 7 7
1708772813.3611 2545 2545 7 8
1708772813.3690 2554 2554 9 9
1708772813.3776 2564 2562 10 8
1708772813.3847 2573 2570 9 8
1708772813.3929 2580 2579 7 9
1708772813.4013 2587 2587 7 8
1708772813.4095 2595 2596 8 9
1708772813.4174 2605 2605 10 9
1708772813.4257 2615 2613 10 8
1708772813.4330 2623 2621 8 8
1708772813.4405 2629 2630 6 9
1708772813.4498 2637 2638 8 8
1708772813.4570 2647 2646 10 8
1708772813.4650 2657 2655 10 9
1708772813.4733 2665 2664 8 9
1708772813.4806 2671 2671 6 7
1708772813.4892 2680 2680 9 9
1708772813.4974 2690 2688 10 8
1708772813.5045 2700 2697 10 9
1708772813.5135 2708 2705 8 8
1708772813.5218 2715 2713 7 8
1708772813.5291 2723 2721 8 8
1708772813.5366 2733 2731 10 10
1708772813.5458 2742 2739 9 8
1708772813.5531 2749 2745 7 6
1708772813.5610 2758 2753 9 8
1708772813.5698 2767 2763 9 10
1708772813.5775 2776 2773 9 10
1708772813.5853 2785 2782 9 9
1708772813.5936 2794 2789 9 7
1708772813.6010 2801 2796 7 7
1708772813.6087 2809 2804 8 8
1708772813.6180 2819 2814 10 10
1708772813.6254 2828 2823 9 9
1708772813.6325 2837 2831 9 8
1708772813.6417 2844 2838 7 7
1708772813.6490 2850 2845 6 7
1708772813.6570 2859 2855 9 10
1708772813.6655 2870 2864 11 9
1708772813.6737 2880 2873 10 9
1708772813.6806 2887 2880 7 7
1708772813.6895 2894 2888 7 8
1708772813.6968 2903 2896 9 8
1708772813.7047 2914 2906 11 10
1708772813.7130 2922 2914 8 8
1708772813.7212 2929 2921 7 7
1708772813.7291 2939 2930 10 9
1708772813.7370 2950 2940 11 10
1708772813.7454 2958 2949 8 9
1708772813.7528 2965 2956 7 7
1708772813.7612 2973 2963 8 7
1708772813.7695 2983 2972 10 9
1708772813.7771 2993 2982 10 10
1708772813.7852 3002 2991 9 9
1708772813.7925 3008 2998 6 7
1708772813.8005 3016 3005 8 7
1708772813.8101 3025 3013 9 8
1708772813.8174 3036 3023 11 10
1708772813.8253 3046 3033 10 10
1708772813.8336 3052 3040 6 7
1708772813.8408 3058 3046 6 6
1708772813.8486 3067 3055 9 9
1708772813.8578 3077 3064 10 9
1708772813.8651 3086 3073 9 9
1708772813.8731 3094 3081 8 8
1708772813.8813 3101 3089 7 8
1708772813.8894 3110 3097 9 8
1708772813.8973 3120 3106 10 9
1708772813.9056 3129 3116 9 10
1708772813.9129 3137 3123 8 7
1708772813.9211 3145 3130 8 7
1708772813.9294 3154 3138 9 8
1708772813.9375 3164 3148 10 10
1708772813.9453 3172 3158 8 10
1708772813.9536 3179 3165 7 7
1708772813.9610 3187 3172 8 7
1708772813.9689 3196 3180 9 8
1708772813.9772 3207 3190 11 10
1708772813.9852 3214 3199 7 9
1708772813.9929 3221 3207 7 8
1708772814.0013 3230 3214 9 7
1708772814.0095 3240 3222 10 8
1708772814.0174 3249 3232 9 10
1708772814.0258 3257 3242 8 10
1708772814.0330 3264 3250 7 8
1708772814.0416 3272 3256 8 6
1708772814.0499 3281 3263 9 7
1708772814.0571 3292 3273 11 10
1708772814.0649 3300 3284 8 11
1708772814.0732 3307 3291 7 7
1708772814.0814 3313 3298 6 7
1708772814.0895 3323 3306 10 8
1708772814.0979 3333 3316 10 10
1708772814.1053 3341 3327 8 11
1708772814.1132 3348 3335 7 8
1708772814.1216 3354 3341 6 6
1708772814.1288 3363 3350 9 9
1708772814.1374 3372 3361 9 11
1708772814.1457 3379 3371 7 10
1708772814.1531 3386 3379 7 8
1708772814.1611 3395 3387 9 8
1708772814.1697 3404 3396 9 9
1708772814.1771 3412 3406 8 10
1708772814.1846 3418 3414 6 8
1708772814.1941 3425 3423 7 9
1708772814.2015 3434 3433 9 10
1708772814.2086 3444 3443 10 10
1708772814.2173 3451 3451 7 8
1708772814.2246 3455 3459 4 8
1708772814.2326 3461 3468 6 9
1708772814.2417 3471 3479 10 11
1708772814.2490 3481 3490 10 11
1708772814.2569 3489 3499 8 9
1708772814.2660 3494 3507 5 8
1708772814.2732 3499 3516 5 9
1708772814.2812 3507 3526 8 10
1708772814.2891 3518 3536 11 10
1708772814.2974 3526 3545 8 9
1708772814.3052 3531 3554 5 9
1708772814.3136 3537 3564 6 10
1708772814.3208 3545 3575 8 11
1708772814.3288 3555 3583 10 8
1708772814.3371 3562 3591 7 8
1708772814.3445 3568 3601 6 10
1708772814.3535 3575 3611 7 10
1708772814.3617 3583 3620 8 9
1708772814.3691 3592 3630 9 10
1708772814.3769 3600 3640 8 10
1708772814.3861 3606 3649 6 9
1708772814.3932 3612 3657 6 8
1708772814.4014 3620 3667 8 10
1708772814.4098 3629 3678 9 11
1708772814.4173 3637 3687 8 9
1708772814.4246 3644 3695 7 8
1708772814.4340 3649 3704 5 9
1708772814.4409 3657 3713 8 9
1708772814.4488 3667 3724 10 11
1708772814.4570 3675 3733 8 9
1708772814.4653 3680 3740 5 7
1708772814.4725 3687 3749 7 9
1708772814.4820 3696 3760 9 11
1708772814.4888 3704 3770 8 10
1708772814.4967 3711 3779 7 9
1708772814.5050 3720 3789 9 10
1708772814.5133 3728 3798 8 9
1708772814.5214 3735 3806 7 8
1708772814.5296 3742 3816 7 10
1708772814.5369 3750 3826 8 10
1708772814.5453 3759 3835 9 9
1708772814.5537 3766 3842 7 7
1708772814.5611 3773 3851 7 9
1708772814.5691 3781 3862 8 11
1708772814.5773 3790 3872 9 10
1708772814.5853 3798 3880 8 8
1708772814.5933 3804 3887 6 7
1708772814.6015 3812 3895 8 8
1708772814.6088 3821 3907 9 12
1708772814.6168 3830 3918 9 11
1708772814.6260 3837 3925 7 7
1708772814.6334 3843 3932 6 7
1708772814.6409 3852 3941 9 9
1708772814.6492 3862 3951 10 10
1708772814.6565 3870 3959 8 8
1708772814.6655 3877 3967 7 8
1708772814.6737 3885 3974 8 7
1708772814.6811 3895 3983 10 9
1708772814.6887 3905 3993 10 10
1708772814.6970 3912 4002 7 9
1708772814.7053 3917 4009 5 7
1708772814.7130 3926 4016 9 7
1708772814.7214 3937 4025 11 9
1708772814.7286 3946 4035 9 10
1708772814.7373 3953 4043 7 8
1708772814.7458 3960 4050 7 7
1708772814.7531 3969 4058 9 8
1708772814.7610 3980 4067 11 9
1708772814.7692 3989 4076 9 9
1708772814.7773 3996 4083 7 7
1708772814.7849 4004 4091 8 8
1708772814.7931 4014 4099 10 8
1708772814.8015 4023 4107 9 8
1708772814.8092 4031 4116 8 9
1708772814.8175 4040 4125 9 9
1708772814.8247 4049 4132 9 7
1708772814.8326 4058 4140 9 8
1708772814.8416 4066 4148 8 8
1708772814.8489 4074 4157 8 9
1708772814.8568 4084 4167 10 10
1708772814.8652 4093 4175 9 8
1708772814.8725 4100 4182 7 7
1708772814.8815 4109 4190 9 8
1708772814.8894 4119 4199 10 9
1708772814.8966 4129 4208 10 9
1708772814.9046 4136 4217 7 9
1708772814.9140 4143 4223 7 6
1708772814.9205 4152 4229 9 6
1708772814.9287 4162 4237 10 8
1708772814.9374 4170 4247 8 10
1708772814.9446 4177 4257 7 10
1708772814.9526 4186 4265 9 8
1708772814.9619 4196 4272 10 7
1708772814.9692 4204 4281 8 9
1708772814.9772 4212 4291 8 10
1708772814.9852 4221 4299 9 8
1708772814.9927 4230 4307 9 8
1708772815.0007 4238 4315 8 8
1708772815.0093 4245 4323 7 8
1708772815.0167 4253 4332 8 9
1708772815.0245 4263 4341 10 9
1708772815.0340 4272 4348 9 7
1708772815.0408 4279 4356 7 8
1708772815.0486 4286 4365 7 9
1708772815.0580 4295 4374 9 9
1708772815.0649 4304 4382 9 8
1708772815.0730 4313 4391 9 9
1708772815.0814 4320 4400 7 9
1708772815.0894 4325 4409 5 9
1708772815.0974 4334 4418 9 9
1708772815.1059 4345 4428 11 10
1708772815.1131 4353 4436 8 8
1708772815.1209 4359 4446 6 10
1708772815.1301 4364 4455 5 9
1708772815.1375 4372 4464 8 9
1708772815.1454 4382 4474 10 10
1708772815.1537 4391 4483 9 9
1708772815.1613 4397 4491 6 8
1708772815.1692 4403 4500 6 9
1708772815.1775 4411 4511 8 11
1708772815.2016 4435 4533 24 22
1708772815.2077 4443 4540 8 7
1708772815.2156 4451 4550 8 10
1708772815.2247 4457 4560 6 10
1708772815.2313 4463 4569 6 9
1708772815.2393 4472 4579 9 10
1708772815.2493 4481 4586 9 7
1708772815.2555 4488 4594 7 8
1708772815.2635 4495 4602 7 8
1708772815.2733 4501 4612 6 10
1708772815.2799 4509 4622 8 10
1708772815.2877 4517 4631 8 9
1708772815.2966 4523 4639 6 8
1708772815.3038 4529 4649 6 10
1708772815.3118 4536 4661 7 12
1708772815.3210 4544 4671 8 10
1708772815.3284 4551 4679 7 8
1708772815.3354 4558 4690 7 11
1708772815.3444 4564 4700 6 10
1708772815.3517 4569 4709 5 9
1708772815.3597 4577 4719 8 10
1708772815.3687 4585 4730 8 11
1708772815.3754 4591 4741 6 11
1708772815.3842 4596 4752 5 11
1708772815.3928 4601 4761 5 9
1708772815.3997 4609 4772 8 11
1708772815.4073 4617 4785 8 13
1708772815.4173 4622 4795 5 10
1708772815.4239 4625 4803 3 8
1708772815.4318 4632 4815 7 12
1708772815.4409 4639 4828 7 13
1708772815.4475 4645 4839 6 11
1708772815.4556 4650 4849 5 10
1708772815.4654 4655 4858 5 9
1708772815.4721 4662 4870 7 12
1708772815.4799 4670 4882 8 12
1708772815.4892 4675 4892 5 10
1708772815.4959 4679 4901 4 9
1708772815.5034 4685 4913 6 12
1708772815.5124 4692 4925 7 12
1708772815.5194 4698 4935 6 10
1708772815.5284 4702 4945 4 10
1708772815.5373 4707 4956 5 11
1708772815.5443 4713 4967 6 11
1708772815.5520 4718 4976 5 9
1708772815.5610 4722 4986 4 10
1708772815.5675 4728 4999 6 13
1708772815.5754 4736 5012 8 13
1708772815.5845 4741 5022 5 10
1708772815.5914 4744 5031 3 9
1708772815.6003 4750 5043 6 12
1708772815.6098 4757 5057 7 14
1708772815.6154 4764 5070 7 13
1708772815.6243 4768 5080 4 10
1708772815.6324 4772 5088 4 8
1708772815.6401 4777 5100 5 12
1708772815.6481 4783 5114 6 14
1708772815.6566 4788 5127 5 13
1708772815.6643 4792 5138 4 11
1708772815.6723 4798 5150 6 12
1708772815.6812 4805 5162 7 12
1708772815.6878 4810 5174 5 12
1708772815.6958 4814 5187 4 13
1708772815.7044 4820 5199 6 12
1708772815.7121 4826 5210 6 11
1708772815.7196 4831 5223 5 13
1708772815.7286 4834 5236 3 13
1708772815.7363 4837 5247 3 11
1708772815.7440 4843 5259 6 12
1708772815.7528 4850 5272 7 13
1708772815.7594 4855 5284 5 12
1708772815.7684 4858 5296 3 12
1708772815.7770 4861 5307 3 11
1708772815.7836 4867 5319 6 12
1708772815.7924 4875 5332 8 13
1708772815.8014 4879 5343 4 11
1708772815.8077 4881 5354 2 11
1708772815.8156 4886 5367 5 13
1708772815.8247 4893 5378 7 11
1708772815.8314 4899 5388 6 10
1708772815.8403 4904 5400 5 12
1708772815.8492 4907 5412 3 12
1708772815.8555 4911 5425 4 13
1708772815.8635 4918 5436 7 11
1708772815.8725 4923 5446 5 10
1708772815.8800 4927 5457 4 11
1708772815.8880 4932 5469 5 12
1708772815.8972 4938 5482 6 13
1708772815.9036 4944 5493 6 11
1708772815.9117 4950 5504 6 11
1708772815.9208 4953 5515 3 11
1708772815.9274 4957 5527 4 12
1708772815.9364 4963 5540 6 13
1708772815.9444 4969 5550 6 10
1708772815.9518 4975 5562 6 12
1708772815.9598 4979 5575 4 13
1708772815.9697 4982 5586 3 11
1708772815.9763 4988 5597 6 11
1708772815.9836 4995 5609 7 12
1708772815.9927 5000 5621 5 12
1708772815.9997 5003 5631 3 10
1708772816.0083 5007 5642 4 11
1708772816.0171 5013 5655 6 13
1708772816.0238 5021 5667 8 12
1708772816.0324 5026 5679 5 12
1708772816.0404 5028 5688 2 9
1708772816.0482 5033 5699 5 11
1708772816.0557 5039 5713 6 14
1708772816.0646 5044 5727 5 14
1708772816.0723 5048 5737 4 10
1708772816.0802 5054 5748 6 11
1708772816.0892 5061 5760 7 12
1708772816.0957 5066 5774 5 14
