% Pose without folding and reset (log_20240224_143725.220/log_pose_abs.txt)
% 1 	Time (sec)
% 2,3 	Position x,y (m)
% 4 	heading (rad)
% 5 	Driven distance (m) - signed
% 6 	Turned angle (rad) - signed
1708781845.9511 0.000 0.000 0.0000 0.000 0.0000
1708781845.9584 0.000 0.000 0.0000 0.000 0.0000
1708781845.9656 -0.000 -0.000 0.0016 -0.000 0.0016
1708781845.9739 -0.000 -0.000 0.0016 -0.000 0.0016
1708781845.9826 -0.000 -0.000 0.0016 -0.000 0.0016
1708781845.9904 -0.000 -0.000 0.0016 -0.000 0.0016
1708781845.9983 -0.000 -0.000 0.0016 -0.000 0.0016
1708781846.0062 -0.000 -0.000 0.0016 -0.000 0.0016
1708781846.0144 -0.000 -0.000 0.0016 -0.000 0.0016
1708781846.0221 -0.000 -0.000 0.0016 -0.000 0.0016
1708781846.0297 -0.000 -0.000 0.0016 -0.000 0.0016
1708781846.0384 -0.000 -0.000 0.0016 -0.000 0.0016
1708781846.0456 -0.000 -0.000 0.0016 -0.000 0.0016
1708781846.0551 -0.000 -0.000 0.0016 -0.000 0.0016
1708781846.0625 -0.000 -0.000 0.0016 -0.000 0.0016
1708781846.0700 -0.000 -0.000 0.0016 -0.000 0.0016
1708781846.0780 0.000 0.000 0.0000 0.000 0.0000
1708781846.0857 0.002 0.000 0.0124 0.002 0.0124
1708781846.0941 0.005 0.000 0.0078 0.005 0.0078
1708781846.1064 0.008 0.000 0.0016 0.008 0.0016
1708781846.1097 0.010 0.000 0.0016 0.010 0.0016
1708781846.1177 0.013 0.000 0.0016 0.013 0.0016
1708781846.1265 0.017 0.000 -0.0031 0.017 -0.0031
1708781846.1344 0.021 0.000 -0.0078 0.021 -0.0078
1708781846.1425 0.026 -0.000 -0.0093 0.026 -0.0093
1708781846.1500 0.031 -0.000 -0.0109 0.031 -0.0109
1708781846.1577 0.036 -0.000 -0.0155 0.036 -0.0155
1708781846.1657 0.042 -0.000 -0.0171 0.042 -0.0171
1708781846.1745 0.048 -0.000 -0.0233 0.048 -0.0233
1708781846.1824 0.055 -0.000 -0.0233 0.055 -0.0233
1708781846.1904 0.061 -0.001 -0.0295 0.061 -0.0295
1708781846.1987 0.067 -0.001 -0.0357 0.067 -0.0357
1708781846.2066 0.073 -0.001 -0.0373 0.073 -0.0373
1708781846.2147 0.080 -0.001 -0.0373 0.080 -0.0373
1708781846.2221 0.087 -0.002 -0.0388 0.087 -0.0388
1708781846.2301 0.093 -0.002 -0.0419 0.093 -0.0419
1708781846.2382 0.100 -0.002 -0.0419 0.100 -0.0419
1708781846.2470 0.106 -0.002 -0.0419 0.106 -0.0419
1708781846.2541 0.113 -0.003 -0.0419 0.113 -0.0419
1708781846.2653 0.120 -0.003 -0.0435 0.120 -0.0435
1708781846.2708 0.126 -0.003 -0.0466 0.126 -0.0466
1708781846.2789 0.132 -0.004 -0.0466 0.132 -0.0466
1708781846.2863 0.137 -0.004 -0.0419 0.137 -0.0419
1708781846.2942 0.143 -0.004 -0.0388 0.144 -0.0388
1708781846.3026 0.150 -0.004 -0.0404 0.151 -0.0404
1708781846.3105 0.157 -0.005 -0.0404 0.157 -0.0404
1708781846.3184 0.163 -0.005 -0.0388 0.164 -0.0388
1708781846.3297 0.170 -0.005 -0.0404 0.170 -0.0404
1708781846.3345 0.177 -0.005 -0.0404 0.177 -0.0404
1708781846.3422 0.185 -0.006 -0.0388 0.185 -0.0388
1708781846.3500 0.190 -0.006 -0.0388 0.190 -0.0388
1708781846.3585 0.196 -0.006 -0.0373 0.196 -0.0373
1708781846.3662 0.202 -0.006 -0.0388 0.202 -0.0388
1708781846.3749 0.209 -0.007 -0.0435 0.209 -0.0435
1708781846.3828 0.216 -0.007 -0.0435 0.217 -0.0435
1708781846.3905 0.223 -0.007 -0.0419 0.223 -0.0419
1708781846.3983 0.230 -0.008 -0.0435 0.230 -0.0435
1708781846.4061 0.236 -0.008 -0.0450 0.236 -0.0450
1708781846.4144 0.242 -0.008 -0.0528 0.243 -0.0528
1708781846.4220 0.248 -0.008 -0.0621 0.249 -0.0621
1708781846.4309 0.255 -0.009 -0.0667 0.255 -0.0667
1708781846.4385 0.261 -0.009 -0.0667 0.262 -0.0667
1708781846.4460 0.269 -0.010 -0.0621 0.269 -0.0621
1708781846.4549 0.276 -0.010 -0.0699 0.277 -0.0699
1708781846.4630 0.282 -0.011 -0.0776 0.283 -0.0776
1708781846.4708 0.288 -0.011 -0.0854 0.288 -0.0854
1708781846.4789 0.294 -0.012 -0.0869 0.295 -0.0869
1708781846.4959 0.308 -0.013 -0.0978 0.308 -0.0978
1708781846.5028 0.315 -0.014 -0.1040 0.315 -0.1040
1708781846.5112 0.322 -0.014 -0.1087 0.322 -0.1087
1708781846.5195 0.328 -0.015 -0.1118 0.328 -0.1118
1708781846.5277 0.334 -0.016 -0.1164 0.334 -0.1164
1708781846.5348 0.340 -0.017 -0.1226 0.340 -0.1226
1708781846.5422 0.346 -0.017 -0.1304 0.347 -0.1304
1708781846.5504 0.352 -0.018 -0.1319 0.352 -0.1319
1708781846.5585 0.357 -0.019 -0.1335 0.358 -0.1335
1708781846.5664 0.364 -0.020 -0.1366 0.364 -0.1366
1708781846.5750 0.371 -0.021 -0.1444 0.371 -0.1444
1708781846.5828 0.377 -0.022 -0.1490 0.378 -0.1490
1708781846.5904 0.383 -0.022 -0.1521 0.384 -0.1521
1708781846.5987 0.389 -0.023 -0.1568 0.390 -0.1568
1708781846.6060 0.395 -0.024 -0.1630 0.396 -0.1630
1708781846.6149 0.401 -0.025 -0.1661 0.402 -0.1661
1708781846.6227 0.408 -0.027 -0.1676 0.409 -0.1676
1708781846.6304 0.414 -0.028 -0.1723 0.415 -0.1723
1708781846.6382 0.420 -0.029 -0.1785 0.421 -0.1785
1708781846.6469 0.426 -0.030 -0.1785 0.427 -0.1785
1708781846.6547 0.432 -0.031 -0.1770 0.434 -0.1770
1708781846.6624 0.439 -0.032 -0.1801 0.441 -0.1801
1708781846.6708 0.444 -0.033 -0.1832 0.446 -0.1832
1708781846.6784 0.450 -0.034 -0.1832 0.452 -0.1832
1708781846.6870 0.456 -0.035 -0.1832 0.458 -0.1832
1708781846.6947 0.463 -0.037 -0.1832 0.465 -0.1832
1708781846.7023 0.470 -0.038 -0.1847 0.472 -0.1847
1708781846.7108 0.476 -0.039 -0.1832 0.479 -0.1832
1708781846.7185 0.482 -0.040 -0.1847 0.485 -0.1847
1708781846.7261 0.489 -0.041 -0.1754 0.492 -0.1754
1708781846.7341 0.496 -0.043 -0.1739 0.499 -0.1739
1708781846.7430 0.501 -0.044 -0.1770 0.504 -0.1770
1708781846.7506 0.507 -0.045 -0.1754 0.510 -0.1754
1708781846.7583 0.514 -0.046 -0.1739 0.517 -0.1739
1708781846.7661 0.521 -0.047 -0.1707 0.524 -0.1707
1708781846.7750 0.527 -0.048 -0.1707 0.530 -0.1707
1708781846.7826 0.532 -0.049 -0.1676 0.536 -0.1676
1708781846.7904 0.539 -0.050 -0.1645 0.542 -0.1645
1708781846.7990 0.546 -0.051 -0.1630 0.549 -0.1630
1708781846.8068 0.552 -0.052 -0.1614 0.555 -0.1614
1708781846.8142 0.557 -0.053 -0.1537 0.561 -0.1537
1708781846.8235 0.563 -0.054 -0.1475 0.567 -0.1475
1708781846.8303 0.570 -0.055 -0.1428 0.574 -0.1428
1708781846.8384 0.577 -0.056 -0.1382 0.581 -0.1382
1708781846.8470 0.583 -0.057 -0.1350 0.587 -0.1350
1708781846.8548 0.589 -0.057 -0.1257 0.593 -0.1257
1708781846.8621 0.596 -0.058 -0.1164 0.600 -0.1164
1708781846.8706 0.602 -0.059 -0.1133 0.606 -0.1133
1708781846.8784 0.608 -0.060 -0.1087 0.612 -0.1087
1708781846.8865 0.615 -0.060 -0.0993 0.619 -0.0993
1708781846.8941 0.621 -0.061 -0.0900 0.625 -0.0900
1708781846.9030 0.627 -0.062 -0.0823 0.631 -0.0823
1708781846.9105 0.633 -0.062 -0.0761 0.637 -0.0761
1708781846.9190 0.639 -0.062 -0.0683 0.643 -0.0683
1708781846.9268 0.646 -0.063 -0.0590 0.650 -0.0590
1708781846.9345 0.652 -0.063 -0.0497 0.657 -0.0497
1708781846.9421 0.658 -0.064 -0.0419 0.663 -0.0419
1708781846.9506 0.664 -0.064 -0.0341 0.668 -0.0341
1708781846.9588 0.670 -0.064 -0.0233 0.675 -0.0233
1708781846.9669 0.678 -0.064 -0.0140 0.682 -0.0140
1708781846.9746 0.685 -0.064 -0.0062 0.689 -0.0062
1708781846.9823 0.691 -0.064 0.0016 0.695 0.0016
1708781846.9910 0.696 -0.064 0.0109 0.701 0.0109
1708781846.9987 0.702 -0.064 0.0233 0.707 0.0233
1708781847.0066 0.709 -0.064 0.0310 0.714 0.0310
1708781847.0150 0.716 -0.064 0.0373 0.720 0.0373
1708781847.0223 0.722 -0.063 0.0466 0.726 0.0466
1708781847.0301 0.728 -0.063 0.0574 0.733 0.0574
1708781847.0388 0.735 -0.063 0.0652 0.739 0.0652
1708781847.0477 0.741 -0.062 0.0714 0.745 0.0714
1708781847.0544 0.748 -0.062 0.0807 0.753 0.0807
1708781847.0628 0.755 -0.061 0.0900 0.760 0.0900
1708781847.0709 0.761 -0.061 0.0962 0.765 0.0962
1708781847.0786 0.766 -0.060 0.1024 0.770 0.1024
1708781847.0866 0.773 -0.059 0.1118 0.777 0.1118
1708781847.0942 0.780 -0.058 0.1195 0.784 0.1195
1708781847.1030 0.787 -0.058 0.1288 0.791 0.1288
1708781847.1102 0.792 -0.057 0.1335 0.797 0.1335
1708781847.1190 0.798 -0.056 0.1413 0.803 0.1413
1708781847.1267 0.805 -0.055 0.1475 0.810 0.1475
1708781847.1344 0.812 -0.054 0.1521 0.817 0.1521
1708781847.1430 0.818 -0.053 0.1599 0.823 0.1599
1708781847.1501 0.824 -0.052 0.1645 0.829 0.1645
1708781847.1584 0.830 -0.051 0.1661 0.835 0.1661
1708781847.1665 0.836 -0.050 0.1661 0.841 0.1661
1708781847.1742 0.843 -0.049 0.1707 0.848 0.1707
1708781847.1827 0.849 -0.048 0.1770 0.854 0.1770
1708781847.1905 0.855 -0.047 0.1801 0.860 0.1801
1708781847.1987 0.861 -0.046 0.1847 0.867 0.1847
1708781847.2063 0.868 -0.044 0.1847 0.873 0.1847
1708781847.2142 0.874 -0.043 0.1832 0.880 0.1832
1708781847.2229 0.880 -0.042 0.1863 0.886 0.1863
1708781847.2303 0.886 -0.041 0.1878 0.892 0.1878
1708781847.2381 0.893 -0.040 0.1847 0.899 0.1847
1708781847.2460 0.899 -0.038 0.1801 0.905 0.1801
1708781847.2547 0.904 -0.038 0.1801 0.911 0.1801
1708781847.2620 0.910 -0.036 0.1785 0.917 0.1785
1708781847.2708 0.918 -0.035 0.1770 0.924 0.1770
1708781847.2786 0.924 -0.034 0.1723 0.931 0.1723
1708781847.2864 0.931 -0.033 0.1645 0.937 0.1645
1708781847.2942 0.937 -0.032 0.1614 0.943 0.1614
1708781847.3029 0.943 -0.031 0.1583 0.949 0.1583
1708781847.3102 0.948 -0.030 0.1506 0.955 0.1506
1708781847.3224 0.955 -0.029 0.1444 0.962 0.1444
1708781847.3269 0.961 -0.028 0.1413 0.968 0.1413
1708781847.3347 0.968 -0.027 0.1382 0.975 0.1382
1708781847.3427 0.972 -0.027 0.1319 0.979 0.1319
1708781847.3503 0.976 -0.026 0.1226 0.984 0.1226
1708781847.3589 0.983 -0.025 0.1118 0.990 0.1118
1708781847.3667 0.990 -0.025 0.1040 0.997 0.1040
1708781847.3744 0.996 -0.024 0.0978 1.003 0.0978
1708781847.3824 1.002 -0.023 0.0916 1.009 0.0916
1708781847.3903 1.007 -0.023 0.0807 1.015 0.0807
1708781847.3991 1.014 -0.022 0.0683 1.021 0.0683
1708781847.4069 1.021 -0.022 0.0605 1.028 0.0605
1708781847.4150 1.028 -0.022 0.0528 1.036 0.0528
1708781847.4227 1.034 -0.021 0.0435 1.042 0.0435
1708781847.4306 1.040 -0.021 0.0341 1.047 0.0341
1708781847.4385 1.046 -0.021 0.0264 1.054 0.0264
1708781847.4465 1.053 -0.021 0.0171 1.060 0.0171
1708781847.4544 1.059 -0.021 0.0062 1.067 0.0062
1708781847.4629 1.065 -0.021 -0.0031 1.073 -0.0031
1708781847.4705 1.072 -0.021 -0.0124 1.079 -0.0124
1708781847.4784 1.078 -0.021 -0.0202 1.086 -0.0202
1708781847.4863 1.085 -0.021 -0.0279 1.092 -0.0279
1708781847.4941 1.091 -0.021 -0.0419 1.098 -0.0419
1708781847.5028 1.097 -0.021 -0.0543 1.105 -0.0543
1708781847.5102 1.104 -0.022 -0.0605 1.111 -0.0605
1708781847.5190 1.110 -0.022 -0.0652 1.118 -0.0652
1708781847.5271 1.117 -0.023 -0.0745 1.124 -0.0745
1708781847.5350 1.123 -0.023 -0.0885 1.130 -0.0885
1708781847.5430 1.129 -0.024 -0.0978 1.137 -0.0978
1708781847.5509 1.135 -0.024 -0.1024 1.143 -0.1024
1708781847.5584 1.142 -0.025 -0.1102 1.149 -0.1102
1708781847.5661 1.148 -0.026 -0.1195 1.156 -0.1195
1708781847.5744 1.154 -0.027 -0.1319 1.162 -0.1319
1708781847.5824 1.160 -0.027 -0.1397 1.167 -0.1397
1708781847.5911 1.166 -0.028 -0.1459 1.174 -0.1459
1708781847.5990 1.173 -0.029 -0.1490 1.181 -0.1490
1708781847.6069 1.180 -0.030 -0.1568 1.188 -0.1568
1708781847.6141 1.187 -0.031 -0.1645 1.195 -0.1645
1708781847.6220 1.193 -0.033 -0.1723 1.201 -0.1723
1708781847.6310 1.198 -0.033 -0.1754 1.206 -0.1754
1708781847.6384 1.204 -0.035 -0.1770 1.213 -0.1770
1708781847.6465 1.211 -0.036 -0.1816 1.219 -0.1816
1708781847.6544 1.217 -0.037 -0.1878 1.225 -0.1878
1708781847.6628 1.223 -0.038 -0.1909 1.231 -0.1909
1708781847.6706 1.229 -0.039 -0.1909 1.238 -0.1909
1708781847.6781 1.236 -0.041 -0.1925 1.245 -0.1925
1708781847.6869 1.242 -0.042 -0.1956 1.251 -0.1956
1708781847.6948 1.248 -0.043 -0.2002 1.257 -0.2002
1708781847.7026 1.255 -0.044 -0.2002 1.264 -0.2002
1708781847.7110 1.261 -0.046 -0.1940 1.271 -0.1940
1708781847.7188 1.267 -0.047 -0.1940 1.277 -0.1940
1708781847.7265 1.273 -0.048 -0.1971 1.283 -0.1971
1708781847.7341 1.279 -0.049 -0.1940 1.289 -0.1940
1708781847.7430 1.286 -0.050 -0.1878 1.295 -0.1878
1708781847.7509 1.292 -0.052 -0.1863 1.302 -0.1863
1708781847.7582 1.298 -0.053 -0.1878 1.308 -0.1878
1708781847.7669 1.305 -0.054 -0.1832 1.315 -0.1832
1708781847.7748 1.310 -0.055 -0.1770 1.321 -0.1770
1708781847.7824 1.317 -0.056 -0.1723 1.327 -0.1723
1708781847.7902 1.324 -0.057 -0.1692 1.334 -0.1692
1708781847.7981 1.330 -0.058 -0.1630 1.340 -0.1630
1708781847.8068 1.335 -0.059 -0.1568 1.346 -0.1568
1708781847.8146 1.342 -0.060 -0.1490 1.353 -0.1490
1708781847.8225 1.349 -0.061 -0.1459 1.359 -0.1459
1708781847.8301 1.355 -0.062 -0.1397 1.365 -0.1397
1708781847.8380 1.361 -0.063 -0.1304 1.371 -0.1304
1708781847.8463 1.367 -0.064 -0.1195 1.378 -0.1195
1708781847.8550 1.374 -0.065 -0.1133 1.385 -0.1133
1708781847.8623 1.380 -0.065 -0.1071 1.391 -0.1071
1708781847.8700 1.387 -0.066 -0.0962 1.398 -0.0962
1708781847.8790 1.393 -0.066 -0.0854 1.404 -0.0854
1708781847.8868 1.399 -0.067 -0.0776 1.410 -0.0776
1708781847.8945 1.407 -0.068 -0.0699 1.418 -0.0699
1708781847.9021 1.413 -0.068 -0.0605 1.424 -0.0605
1708781847.9110 1.419 -0.068 -0.0512 1.430 -0.0512
1708781847.9189 1.425 -0.069 -0.0419 1.436 -0.0419
1708781847.9266 1.432 -0.069 -0.0326 1.443 -0.0326
1708781847.9343 1.439 -0.069 -0.0171 1.450 -0.0171
1708781847.9426 1.445 -0.069 -0.0031 1.456 -0.0031
1708781847.9508 1.450 -0.069 0.0047 1.461 0.0047
1708781847.9583 1.457 -0.069 0.0124 1.468 0.0124
1708781847.9663 1.464 -0.069 0.0233 1.475 0.0233
1708781847.9751 1.470 -0.069 0.0341 1.481 0.0341
1708781847.9830 1.476 -0.068 0.0435 1.487 0.0435
1708781847.9904 1.483 -0.068 0.0543 1.494 0.0543
1708781847.9989 1.489 -0.068 0.0621 1.500 0.0621
1708781848.0068 1.495 -0.067 0.0667 1.506 0.0667
1708781848.0149 1.501 -0.067 0.0745 1.513 0.0745
1708781848.0225 1.508 -0.066 0.0838 1.519 0.0838
1708781848.0304 1.514 -0.066 0.0885 1.526 0.0885
1708781848.0381 1.520 -0.065 0.0947 1.532 0.0947
1708781848.0469 1.527 -0.065 0.1056 1.538 0.1056
1708781848.0548 1.533 -0.064 0.1164 1.544 0.1164
1708781848.0624 1.540 -0.063 0.1211 1.551 0.1211
1708781848.0702 1.546 -0.062 0.1226 1.558 0.1226
1708781848.0786 1.552 -0.062 0.1273 1.563 0.1273
1708781848.0864 1.558 -0.061 0.1350 1.569 0.1350
1708781848.0951 1.565 -0.060 0.1428 1.576 0.1428
1708781848.1029 1.572 -0.059 0.1444 1.583 0.1444
1708781848.1104 1.578 -0.058 0.1444 1.590 0.1444
1708781848.1191 1.584 -0.057 0.1475 1.596 0.1475
1708781848.1268 1.590 -0.056 0.1552 1.602 0.1552
1708781848.1346 1.596 -0.055 0.1599 1.608 0.1599
1708781848.1423 1.603 -0.054 0.1568 1.615 0.1568
1708781848.1502 1.609 -0.053 0.1521 1.621 0.1521
1708781848.1582 1.615 -0.052 0.1506 1.627 0.1506
1708781848.1670 1.621 -0.051 0.1552 1.634 0.1552
1708781848.1747 1.628 -0.050 0.1568 1.640 0.1568
1708781848.1825 1.634 -0.049 0.1521 1.647 0.1521
1708781848.1901 1.641 -0.048 0.1459 1.653 0.1459
1708781848.1980 1.646 -0.047 0.1428 1.659 0.1428
1708781848.2063 1.653 -0.047 0.1444 1.665 0.1444
1708781848.2149 1.659 -0.046 0.1444 1.672 0.1444
1708781848.2229 1.666 -0.045 0.1366 1.679 0.1366
1708781848.2307 1.672 -0.044 0.1288 1.685 0.1288
1708781848.2384 1.679 -0.043 0.1242 1.691 0.1242
1708781848.2463 1.684 -0.042 0.1226 1.697 0.1226
1708781848.2542 1.690 -0.042 0.1164 1.703 0.1164
1708781848.2625 1.697 -0.041 0.1102 1.710 0.1102
1708781848.2708 1.703 -0.040 0.1056 1.716 0.1056
1708781848.2786 1.709 -0.040 0.1024 1.722 0.1024
1708781848.2862 1.716 -0.039 0.0931 1.729 0.0931
1708781848.2940 1.722 -0.038 0.0838 1.735 0.0838
1708781848.3029 1.728 -0.038 0.0776 1.741 0.0776
1708781848.3110 1.734 -0.037 0.0761 1.747 0.0761
1708781848.3188 1.741 -0.037 0.0667 1.754 0.0667
1708781848.3268 1.747 -0.037 0.0528 1.760 0.0528
1708781848.3346 1.753 -0.036 0.0388 1.767 0.0388
1708781848.3428 1.760 -0.036 0.0310 1.773 0.0310
1708781848.3507 1.767 -0.036 0.0202 1.780 0.0202
1708781848.3587 1.773 -0.036 0.0078 1.787 0.0078
1708781848.3668 1.779 -0.036 -0.0047 1.793 -0.0047
1708781848.3751 1.786 -0.036 -0.0155 1.799 -0.0155
1708781848.3827 1.793 -0.036 -0.0279 1.806 -0.0279
1708781848.3905 1.799 -0.036 -0.0404 1.812 -0.0404
1708781848.3981 1.805 -0.036 -0.0497 1.818 -0.0497
1708781848.4068 1.812 -0.037 -0.0621 1.825 -0.0621
1708781848.4143 1.818 -0.037 -0.0761 1.831 -0.0761
1708781848.4222 1.826 -0.038 -0.0900 1.839 -0.0900
1708781848.4309 1.832 -0.038 -0.1009 1.845 -0.1009
1708781848.4387 1.838 -0.039 -0.1118 1.851 -0.1118
1708781848.4462 1.844 -0.040 -0.1211 1.857 -0.1211
1708781848.4550 1.851 -0.041 -0.1335 1.864 -0.1335
1708781848.4624 1.857 -0.042 -0.1459 1.870 -0.1459
1708781848.4707 1.863 -0.043 -0.1568 1.877 -0.1568
1708781848.4783 1.870 -0.044 -0.1676 1.883 -0.1676
1708781848.4878 1.876 -0.045 -0.1754 1.890 -0.1754
1708781848.4947 1.882 -0.046 -0.1832 1.895 -0.1832
1708781848.5030 1.888 -0.047 -0.1909 1.902 -0.1909
1708781848.5104 1.894 -0.048 -0.2002 1.908 -0.2002
1708781848.5187 1.901 -0.049 -0.2111 1.915 -0.2111
1708781848.5270 1.907 -0.051 -0.2189 1.921 -0.2189
1708781848.5342 1.913 -0.052 -0.2189 1.927 -0.2189
1708781848.5422 1.919 -0.054 -0.2251 1.934 -0.2251
1708781848.5505 1.925 -0.055 -0.2359 1.940 -0.2359
1708781848.5584 1.931 -0.056 -0.2422 1.946 -0.2422
1708781848.5664 1.937 -0.058 -0.2437 1.953 -0.2437
1708781848.5742 1.944 -0.060 -0.2453 1.959 -0.2453
1708781848.5825 1.950 -0.061 -0.2546 1.965 -0.2546
1708781848.5904 1.955 -0.063 -0.2623 1.971 -0.2623
1708781848.5981 1.961 -0.064 -0.2608 1.977 -0.2608
1708781848.6063 1.968 -0.066 -0.2561 1.984 -0.2561
1708781848.6147 1.974 -0.068 -0.2592 1.991 -0.2592
1708781848.6221 1.980 -0.069 -0.2670 1.997 -0.2670
1708781848.6300 1.986 -0.071 -0.2654 2.003 -0.2654
1708781848.6389 1.992 -0.073 -0.2608 2.009 -0.2608
1708781848.6466 1.998 -0.074 -0.2592 2.016 -0.2592
1708781848.6544 2.005 -0.076 -0.2608 2.022 -0.2608
1708781848.6630 2.011 -0.077 -0.2577 2.029 -0.2577
1708781848.6704 2.017 -0.079 -0.2530 2.034 -0.2530
1708781848.6782 2.023 -0.081 -0.2484 2.041 -0.2484
1708781848.6861 2.029 -0.082 -0.2437 2.047 -0.2437
1708781848.6948 2.035 -0.084 -0.2359 2.053 -0.2359
1708781848.7026 2.041 -0.085 -0.2313 2.060 -0.2313
1708781848.7110 2.048 -0.087 -0.2251 2.067 -0.2251
1708781848.7184 2.055 -0.088 -0.2173 2.073 -0.2173
1708781848.7262 2.060 -0.089 -0.2080 2.079 -0.2080
1708781848.7344 2.066 -0.091 -0.2002 2.085 -0.2002
1708781848.7425 2.072 -0.092 -0.1909 2.092 -0.1909
1708781848.7506 2.079 -0.093 -0.1816 2.099 -0.1816
1708781848.7589 2.085 -0.094 -0.1692 2.105 -0.1692
1708781848.7666 2.092 -0.095 -0.1583 2.111 -0.1583
1708781848.7744 2.098 -0.096 -0.1475 2.118 -0.1475
1708781848.7821 2.104 -0.097 -0.1366 2.124 -0.1366
1708781848.7908 2.111 -0.098 -0.1242 2.130 -0.1242
1708781848.7986 2.117 -0.099 -0.1118 2.137 -0.1118
1708781848.8063 2.124 -0.099 -0.0993 2.144 -0.0993
1708781848.8146 2.130 -0.100 -0.0885 2.150 -0.0885
1708781848.8224 2.136 -0.100 -0.0776 2.156 -0.0776
1708781848.8302 2.143 -0.101 -0.0652 2.162 -0.0652
1708781848.8389 2.149 -0.101 -0.0466 2.169 -0.0466
1708781848.8468 2.155 -0.102 -0.0310 2.175 -0.0310
1708781848.8546 2.162 -0.102 -0.0171 2.182 -0.0171
1708781848.8629 2.169 -0.102 -0.0093 2.189 -0.0093
1708781848.8724 2.175 -0.102 0.0031 2.195 0.0031
1708781848.8781 2.181 -0.102 0.0186 2.201 0.0186
1708781848.8869 2.188 -0.102 0.0326 2.208 0.0326
1708781848.8949 2.193 -0.101 0.0450 2.213 0.0450
1708781848.9026 2.199 -0.101 0.0528 2.219 0.0528
1708781848.9110 2.206 -0.101 0.0621 2.226 0.0621
1708781848.9188 2.213 -0.100 0.0792 2.233 0.0792
1708781848.9268 2.219 -0.100 0.0947 2.239 0.0947
1708781848.9345 2.225 -0.099 0.1056 2.245 0.1056
1708781848.9422 2.232 -0.098 0.1118 2.252 0.1118
1708781848.9508 2.238 -0.098 0.1226 2.258 0.1226
1708781848.9591 2.244 -0.097 0.1350 2.265 0.1350
1708781848.9670 2.250 -0.096 0.1490 2.271 0.1490
1708781848.9749 2.258 -0.095 0.1583 2.278 0.1583
1708781848.9824 2.265 -0.094 0.1676 2.285 0.1676
1708781848.9902 2.271 -0.093 0.1754 2.291 0.1754
1708781848.9980 2.276 -0.092 0.1847 2.297 0.1847
1708781849.0068 2.283 -0.090 0.1925 2.304 0.1925
1708781849.0146 2.289 -0.089 0.1987 2.310 0.1987
1708781849.0227 2.296 -0.088 0.2049 2.317 0.2049
1708781849.0302 2.302 -0.086 0.2127 2.323 0.2127
1708781849.0380 2.307 -0.085 0.2189 2.329 0.2189
1708781849.0470 2.314 -0.084 0.2235 2.335 0.2235
1708781849.0546 2.321 -0.082 0.2282 2.342 0.2282
1708781849.0621 2.327 -0.081 0.2328 2.349 0.2328
1708781849.0704 2.333 -0.079 0.2359 2.355 0.2359
1708781849.0789 2.338 -0.078 0.2390 2.361 0.2390
1708781849.0868 2.344 -0.077 0.2390 2.366 0.2390
1708781849.0947 2.351 -0.075 0.2390 2.373 0.2390
1708781849.1023 2.357 -0.073 0.2453 2.380 0.2453
