% Pose without folding and reset (log_20240224_130907.764/log_pose_abs.txt)
% 1 	Time (sec)
% 2,3 	Position x,y (m)
% 4 	heading (rad)
% 5 	Driven distance (m) - signed
% 6 	Turned angle (rad) - signed
1708776547.8791 0.000 0.000 0.0000 0.000 0.0000
1708776547.8868 0.000 0.000 0.0000 0.000 0.0000
1708776547.8939 0.000 0.000 0.0000 0.000 0.0000
1708776547.9026 0.000 0.000 0.0000 0.000 0.0000
1708776547.9097 0.000 0.000 0.0000 0.000 0.0000
1708776547.9187 0.000 0.000 0.0000 0.000 0.0000
1708776547.9257 0.000 0.000 0.0000 0.000 0.0000
1708776547.9354 0.000 0.000 0.0000 0.000 0.0000
1708776547.9419 0.000 0.000 0.0000 0.000 0.0000
1708776547.9502 0.000 0.000 0.0000 0.000 0.0000
1708776547.9587 0.000 0.000 0.0000 0.000 0.0000
1708776547.9660 0.000 0.000 0.0000 0.000 0.0000
1708776547.9738 0.000 0.000 0.0000 0.000 0.0000
1708776547.9822 0.000 0.000 0.0000 0.000 0.0000
1708776547.9901 0.000 0.000 0.0000 0.000 0.0000
1708776547.9979 0.000 0.000 0.0000 0.000 0.0000
1708776548.0062 0.000 0.000 0.0000 0.000 0.0000
1708776548.0143 0.001 0.000 0.0078 0.001 0.0078
1708776548.0220 0.003 0.000 -0.0000 0.003 -0.0000
1708776548.0301 0.004 0.000 -0.0047 0.004 -0.0047
1708776548.0379 0.007 -0.000 -0.0031 0.007 -0.0031
1708776548.0457 0.009 -0.000 -0.0016 0.009 -0.0016
1708776548.0539 0.012 -0.000 -0.0031 0.012 -0.0031
1708776548.0621 0.015 -0.000 -0.0062 0.015 -0.0062
1708776548.0702 0.019 -0.000 -0.0047 0.019 -0.0047
1708776548.0782 0.023 -0.000 -0.0047 0.023 -0.0047
1708776548.0861 0.027 -0.000 -0.0047 0.027 -0.0047
1708776548.0961 0.031 -0.000 -0.0031 0.031 -0.0031
1708776548.1040 0.035 -0.000 -0.0031 0.035 -0.0031
1708776548.1106 0.040 -0.000 -0.0047 0.040 -0.0047
1708776548.1190 0.045 -0.000 -0.0047 0.045 -0.0047
1708776548.1266 0.049 -0.000 -0.0062 0.049 -0.0062
1708776548.1349 0.054 -0.000 -0.0047 0.054 -0.0047
1708776548.1420 0.059 -0.000 -0.0047 0.059 -0.0047
1708776548.1506 0.063 -0.000 -0.0078 0.063 -0.0078
1708776548.1581 0.068 -0.000 -0.0093 0.068 -0.0093
1708776548.1661 0.073 -0.000 -0.0078 0.073 -0.0078
1708776548.1737 0.077 -0.000 -0.0062 0.077 -0.0062
1708776548.1823 0.082 -0.000 -0.0078 0.082 -0.0078
1708776548.1906 0.088 -0.000 -0.0078 0.088 -0.0078
1708776548.1980 0.094 -0.000 -0.0062 0.094 -0.0062
1708776548.2066 0.099 -0.001 -0.0047 0.099 -0.0047
1708776548.2148 0.104 -0.001 -0.0016 0.104 -0.0016
1708776548.2222 0.110 -0.001 -0.0031 0.110 -0.0031
1708776548.2302 0.116 -0.001 -0.0062 0.116 -0.0062
1708776548.2381 0.121 -0.001 -0.0093 0.121 -0.0093
1708776548.2467 0.125 -0.001 -0.0093 0.125 -0.0093
1708776548.2540 0.130 -0.001 -0.0093 0.130 -0.0093
1708776548.2623 0.136 -0.001 -0.0124 0.136 -0.0124
1708776548.2707 0.141 -0.001 -0.0155 0.141 -0.0155
1708776548.2781 0.146 -0.001 -0.0171 0.146 -0.0171
1708776548.2868 0.151 -0.001 -0.0202 0.151 -0.0202
1708776548.2941 0.155 -0.001 -0.0202 0.155 -0.0202
1708776548.3025 0.160 -0.001 -0.0233 0.160 -0.0233
1708776548.3103 0.165 -0.001 -0.0310 0.165 -0.0310
1708776548.3186 0.170 -0.001 -0.0341 0.170 -0.0341
1708776548.3265 0.175 -0.002 -0.0341 0.175 -0.0341
1708776548.3352 0.179 -0.002 -0.0341 0.179 -0.0341
1708776548.3424 0.184 -0.002 -0.0404 0.184 -0.0404
1708776548.3505 0.189 -0.002 -0.0435 0.189 -0.0435
1708776548.3586 0.193 -0.002 -0.0435 0.193 -0.0435
1708776548.3660 0.197 -0.003 -0.0450 0.197 -0.0450
1708776548.3747 0.203 -0.003 -0.0497 0.203 -0.0497
1708776548.3869 0.207 -0.003 -0.0528 0.207 -0.0528
1708776548.3914 0.212 -0.003 -0.0543 0.212 -0.0543
1708776548.3978 0.217 -0.004 -0.0559 0.217 -0.0559
1708776548.4059 0.221 -0.004 -0.0590 0.221 -0.0590
1708776548.4144 0.224 -0.004 -0.0621 0.224 -0.0621
1708776548.4219 0.229 -0.004 -0.0636 0.229 -0.0636
1708776548.4299 0.235 -0.005 -0.0683 0.235 -0.0683
1708776548.4386 0.240 -0.005 -0.0699 0.240 -0.0699
1708776548.4458 0.243 -0.005 -0.0699 0.243 -0.0699
1708776548.4546 0.248 -0.006 -0.0699 0.248 -0.0699
1708776548.4621 0.253 -0.006 -0.0730 0.253 -0.0730
1708776548.4704 0.258 -0.006 -0.0776 0.258 -0.0776
1708776548.4787 0.263 -0.007 -0.0792 0.263 -0.0792
1708776548.4867 0.267 -0.007 -0.0792 0.267 -0.0792
1708776548.4938 0.272 -0.007 -0.0792 0.272 -0.0792
1708776548.5017 0.276 -0.008 -0.0823 0.277 -0.0823
1708776548.5099 0.281 -0.008 -0.0823 0.281 -0.0823
1708776548.5181 0.285 -0.009 -0.0823 0.286 -0.0823
1708776548.5257 0.290 -0.009 -0.0807 0.290 -0.0807
1708776548.5347 0.295 -0.009 -0.0838 0.295 -0.0838
1708776548.5421 0.300 -0.010 -0.0838 0.300 -0.0838
1708776548.5502 0.304 -0.010 -0.0823 0.305 -0.0823
1708776548.5585 0.309 -0.011 -0.0807 0.309 -0.0807
1708776548.5657 0.314 -0.011 -0.0792 0.314 -0.0792
1708776548.5744 0.319 -0.011 -0.0807 0.319 -0.0807
1708776548.5818 0.323 -0.012 -0.0823 0.323 -0.0823
1708776548.5897 0.328 -0.012 -0.0761 0.328 -0.0761
1708776548.5978 0.332 -0.012 -0.0745 0.333 -0.0745
1708776548.6061 0.337 -0.013 -0.0745 0.338 -0.0745
1708776548.6143 0.342 -0.013 -0.0714 0.342 -0.0714
1708776548.6221 0.347 -0.013 -0.0683 0.347 -0.0683
1708776548.6303 0.352 -0.014 -0.0652 0.352 -0.0652
1708776548.6382 0.356 -0.014 -0.0652 0.357 -0.0652
1708776548.6461 0.361 -0.014 -0.0636 0.362 -0.0636
1708776548.6543 0.366 -0.015 -0.0605 0.367 -0.0605
1708776548.6617 0.371 -0.015 -0.0559 0.371 -0.0559
1708776548.6706 0.375 -0.015 -0.0543 0.376 -0.0543
1708776548.6777 0.380 -0.015 -0.0528 0.381 -0.0528
1708776548.6867 0.386 -0.016 -0.0528 0.386 -0.0528
1708776548.6945 0.390 -0.016 -0.0497 0.391 -0.0497
1708776548.7017 0.395 -0.016 -0.0419 0.395 -0.0419
1708776548.7101 0.400 -0.016 -0.0388 0.400 -0.0388
1708776548.7183 0.405 -0.017 -0.0404 0.405 -0.0404
1708776548.7266 0.409 -0.017 -0.0404 0.410 -0.0404
1708776548.7346 0.414 -0.017 -0.0373 0.415 -0.0373
1708776548.7426 0.419 -0.017 -0.0326 0.420 -0.0326
1708776548.7500 0.424 -0.017 -0.0295 0.424 -0.0295
1708776548.7582 0.428 -0.017 -0.0310 0.429 -0.0310
1708776548.7661 0.433 -0.018 -0.0295 0.434 -0.0295
1708776548.7743 0.438 -0.018 -0.0248 0.438 -0.0248
1708776548.7827 0.443 -0.018 -0.0202 0.443 -0.0202
1708776548.7901 0.448 -0.018 -0.0186 0.448 -0.0186
1708776548.7982 0.452 -0.018 -0.0186 0.453 -0.0186
1708776548.8058 0.457 -0.018 -0.0171 0.457 -0.0171
1708776548.8146 0.462 -0.018 -0.0124 0.462 -0.0124
1708776548.8224 0.467 -0.018 -0.0093 0.467 -0.0093
1708776548.8307 0.472 -0.018 -0.0078 0.473 -0.0078
1708776548.8381 0.477 -0.018 -0.0078 0.477 -0.0078
1708776548.8465 0.481 -0.018 -0.0062 0.482 -0.0062
1708776548.8538 0.485 -0.018 -0.0016 0.486 -0.0016
1708776548.8621 0.491 -0.018 0.0031 0.491 0.0031
1708776548.8699 0.496 -0.018 0.0062 0.497 0.0062
1708776548.8780 0.501 -0.018 0.0062 0.502 0.0062
1708776548.8861 0.505 -0.018 0.0062 0.506 0.0062
1708776548.8951 0.510 -0.018 0.0093 0.510 0.0093
1708776548.9023 0.515 -0.018 0.0124 0.515 0.0124
1708776548.9102 0.520 -0.018 0.0140 0.521 0.0140
1708776548.9187 0.525 -0.018 0.0171 0.526 0.0171
1708776548.9259 0.529 -0.018 0.0202 0.530 0.0202
1708776548.9344 0.534 -0.018 0.0202 0.534 0.0202
1708776548.9427 0.539 -0.018 0.0217 0.539 0.0217
1708776548.9500 0.544 -0.018 0.0217 0.545 0.0217
1708776548.9578 0.549 -0.017 0.0233 0.549 0.0233
1708776548.9660 0.553 -0.017 0.0233 0.554 0.0233
1708776548.9742 0.558 -0.017 0.0264 0.558 0.0264
1708776548.9821 0.563 -0.017 0.0279 0.564 0.0279
1708776548.9901 0.568 -0.017 0.0295 0.569 0.0295
1708776548.9987 0.572 -0.017 0.0310 0.573 0.0310
1708776549.0066 0.577 -0.017 0.0326 0.577 0.0326
1708776549.0137 0.582 -0.017 0.0341 0.582 0.0341
1708776549.0218 0.587 -0.016 0.0357 0.587 0.0357
1708776549.0306 0.592 -0.016 0.0373 0.592 0.0373
1708776549.0384 0.596 -0.016 0.0388 0.597 0.0388
1708776549.0467 0.601 -0.016 0.0435 0.602 0.0435
1708776549.0544 0.606 -0.016 0.0435 0.607 0.0435
1708776549.0627 0.610 -0.015 0.0435 0.611 0.0435
1708776549.0697 0.615 -0.015 0.0435 0.616 0.0435
1708776549.0785 0.620 -0.015 0.0450 0.620 0.0450
1708776549.0864 0.624 -0.015 0.0466 0.625 0.0466
1708776549.0946 0.630 -0.015 0.0497 0.630 0.0497
1708776549.1024 0.634 -0.014 0.0481 0.635 0.0481
1708776549.1104 0.639 -0.014 0.0466 0.640 0.0466
1708776549.1187 0.644 -0.014 0.0497 0.644 0.0497
1708776549.1265 0.649 -0.014 0.0528 0.649 0.0528
1708776549.1354 0.654 -0.013 0.0512 0.654 0.0512
1708776549.1417 0.658 -0.013 0.0466 0.659 0.0466
1708776549.1497 0.663 -0.013 0.0497 0.663 0.0497
1708776549.1577 0.667 -0.013 0.0512 0.667 0.0512
1708776549.1660 0.672 -0.012 0.0559 0.673 0.0559
1708776549.1738 0.677 -0.012 0.0543 0.678 0.0543
1708776549.1820 0.682 -0.012 0.0481 0.683 0.0481
1708776549.1900 0.686 -0.012 0.0481 0.687 0.0481
1708776549.1987 0.691 -0.011 0.0466 0.692 0.0466
1708776549.2057 0.696 -0.011 0.0466 0.697 0.0466
1708776549.2140 0.701 -0.011 0.0497 0.702 0.0497
1708776549.2218 0.705 -0.011 0.0497 0.706 0.0497
1708776549.2301 0.710 -0.011 0.0481 0.710 0.0481
1708776549.2380 0.715 -0.010 0.0481 0.716 0.0481
1708776549.2466 0.720 -0.010 0.0497 0.721 0.0497
1708776549.2538 0.725 -0.010 0.0497 0.726 0.0497
1708776549.2621 0.730 -0.010 0.0497 0.730 0.0497
1708776549.2698 0.734 -0.009 0.0512 0.735 0.0512
1708776549.2780 0.739 -0.009 0.0528 0.740 0.0528
1708776549.2859 0.744 -0.009 0.0528 0.745 0.0528
1708776549.2945 0.749 -0.009 0.0512 0.749 0.0512
1708776549.3027 0.753 -0.008 0.0512 0.754 0.0512
1708776549.3106 0.758 -0.008 0.0528 0.759 0.0528
1708776549.3185 0.764 -0.008 0.0543 0.764 0.0543
1708776549.3264 0.769 -0.008 0.0543 0.769 0.0543
1708776549.3351 0.772 -0.007 0.0528 0.773 0.0528
1708776549.3419 0.777 -0.007 0.0512 0.778 0.0512
1708776549.3501 0.782 -0.007 0.0512 0.783 0.0512
1708776549.3584 0.787 -0.007 0.0543 0.788 0.0543
1708776549.3662 0.791 -0.006 0.0528 0.792 0.0528
1708776549.3744 0.796 -0.006 0.0497 0.797 0.0497
1708776549.3825 0.801 -0.006 0.0466 0.802 0.0466
1708776549.3899 0.806 -0.006 0.0435 0.807 0.0435
1708776549.3986 0.811 -0.005 0.0450 0.812 0.0450
1708776549.4064 0.815 -0.005 0.0450 0.816 0.0450
1708776549.4143 0.820 -0.005 0.0419 0.821 0.0419
1708776549.4225 0.825 -0.005 0.0388 0.826 0.0388
1708776549.4306 0.830 -0.005 0.0373 0.831 0.0373
1708776549.4379 0.834 -0.004 0.0326 0.835 0.0326
1708776549.4462 0.839 -0.004 0.0295 0.840 0.0295
1708776549.4544 0.844 -0.004 0.0279 0.845 0.0279
1708776549.4621 0.849 -0.004 0.0233 0.850 0.0233
1708776549.4701 0.854 -0.004 0.0171 0.855 0.0171
1708776549.4783 0.859 -0.004 0.0140 0.859 0.0140
1708776549.4857 0.863 -0.004 0.0124 0.864 0.0124
1708776549.4939 0.868 -0.004 0.0078 0.869 0.0078
1708776549.5021 0.873 -0.004 0.0016 0.874 0.0016
1708776549.5099 0.878 -0.004 -0.0016 0.879 -0.0016
1708776549.5178 0.883 -0.004 -0.0047 0.884 -0.0047
1708776549.5261 0.887 -0.004 -0.0062 0.888 -0.0062
1708776549.5345 0.892 -0.004 -0.0093 0.893 -0.0093
1708776549.5427 0.897 -0.004 -0.0155 0.898 -0.0155
1708776549.5499 0.902 -0.004 -0.0202 0.903 -0.0202
1708776549.5586 0.907 -0.004 -0.0233 0.908 -0.0233
1708776549.5669 0.911 -0.004 -0.0248 0.912 -0.0248
1708776549.5741 0.916 -0.004 -0.0295 0.916 -0.0295
1708776549.5821 0.921 -0.004 -0.0326 0.922 -0.0326
1708776549.5900 0.926 -0.005 -0.0357 0.927 -0.0357
1708776549.5984 0.930 -0.005 -0.0388 0.931 -0.0388
1708776549.6060 0.935 -0.005 -0.0404 0.935 -0.0404
1708776549.6142 0.940 -0.005 -0.0435 0.941 -0.0435
1708776549.6225 0.945 -0.005 -0.0497 0.946 -0.0497
1708776549.6302 0.950 -0.006 -0.0543 0.951 -0.0543
1708776549.6380 0.955 -0.006 -0.0559 0.955 -0.0559
1708776549.6463 0.959 -0.006 -0.0543 0.960 -0.0543
1708776549.6539 0.964 -0.006 -0.0590 0.965 -0.0590
1708776549.6621 0.969 -0.007 -0.0621 0.970 -0.0621
1708776549.6703 0.974 -0.007 -0.0652 0.975 -0.0652
1708776549.6782 0.979 -0.007 -0.0683 0.980 -0.0683
1708776549.6860 0.984 -0.008 -0.0683 0.985 -0.0683
1708776549.6941 0.988 -0.008 -0.0683 0.989 -0.0683
1708776549.7018 0.993 -0.008 -0.0699 0.994 -0.0699
1708776549.7100 0.997 -0.009 -0.0714 0.998 -0.0714
1708776549.7183 1.003 -0.009 -0.0730 1.004 -0.0730
1708776549.7260 1.008 -0.009 -0.0714 1.009 -0.0714
1708776549.7358 1.012 -0.010 -0.0714 1.013 -0.0714
1708776549.7423 1.017 -0.010 -0.0730 1.018 -0.0730
1708776549.7501 1.022 -0.010 -0.0730 1.023 -0.0730
1708776549.7584 1.026 -0.011 -0.0714 1.027 -0.0714
1708776549.7667 1.030 -0.011 -0.0683 1.031 -0.0683
1708776549.7743 1.035 -0.011 -0.0667 1.036 -0.0667
1708776549.7825 1.040 -0.012 -0.0699 1.041 -0.0699
1708776549.7902 1.045 -0.012 -0.0714 1.046 -0.0714
1708776549.7979 1.049 -0.012 -0.0683 1.050 -0.0683
1708776549.8061 1.054 -0.013 -0.0652 1.055 -0.0652
1708776549.8145 1.059 -0.013 -0.0636 1.060 -0.0636
1708776549.8220 1.063 -0.013 -0.0667 1.065 -0.0667
1708776549.8300 1.069 -0.014 -0.0667 1.070 -0.0667
1708776549.8379 1.073 -0.014 -0.0621 1.074 -0.0621
1708776549.8467 1.077 -0.014 -0.0590 1.078 -0.0590
1708776549.8538 1.082 -0.014 -0.0574 1.084 -0.0574
1708776549.8621 1.088 -0.015 -0.0543 1.089 -0.0543
1708776549.8698 1.092 -0.015 -0.0543 1.094 -0.0543
1708776549.8778 1.097 -0.015 -0.0543 1.098 -0.0543
1708776549.8867 1.102 -0.016 -0.0528 1.103 -0.0528
1708776549.8945 1.107 -0.016 -0.0512 1.108 -0.0512
1708776549.9027 1.112 -0.016 -0.0528 1.113 -0.0528
1708776549.9098 1.117 -0.016 -0.0512 1.118 -0.0512
1708776549.9184 1.121 -0.017 -0.0497 1.123 -0.0497
1708776549.9266 1.126 -0.017 -0.0528 1.127 -0.0528
1708776549.9352 1.131 -0.017 -0.0543 1.133 -0.0543
1708776549.9427 1.136 -0.017 -0.0543 1.137 -0.0543
1708776549.9499 1.141 -0.018 -0.0543 1.142 -0.0543
1708776549.9583 1.145 -0.018 -0.0574 1.146 -0.0574
1708776549.9658 1.150 -0.018 -0.0590 1.151 -0.0590
1708776549.9740 1.155 -0.018 -0.0605 1.156 -0.0605
1708776549.9823 1.160 -0.019 -0.0636 1.161 -0.0636
1708776549.9897 1.164 -0.019 -0.0667 1.166 -0.0667
1708776549.9979 1.169 -0.019 -0.0683 1.170 -0.0683
1708776550.0062 1.174 -0.020 -0.0683 1.175 -0.0683
1708776550.0138 1.179 -0.020 -0.0730 1.180 -0.0730
1708776550.0219 1.183 -0.020 -0.0761 1.185 -0.0761
1708776550.0302 1.188 -0.021 -0.0792 1.189 -0.0792
1708776550.0387 1.193 -0.021 -0.0838 1.194 -0.0838
1708776550.0458 1.198 -0.022 -0.0869 1.199 -0.0869
1708776550.0539 1.203 -0.022 -0.0916 1.204 -0.0916
1708776550.0627 1.207 -0.022 -0.0962 1.208 -0.0962
1708776550.0698 1.211 -0.023 -0.0978 1.213 -0.0978
1708776550.0788 1.217 -0.023 -0.1009 1.218 -0.1009
1708776550.0862 1.221 -0.024 -0.1071 1.223 -0.1071
1708776550.0946 1.226 -0.024 -0.1149 1.227 -0.1149
1708776550.1106 1.235 -0.025 -0.1257 1.237 -0.1257
1708776550.1178 1.241 -0.026 -0.1288 1.242 -0.1288
1708776550.1262 1.245 -0.027 -0.1335 1.247 -0.1335
1708776550.1348 1.249 -0.027 -0.1397 1.251 -0.1397
1708776550.1420 1.254 -0.028 -0.1506 1.256 -0.1506
1708776550.1502 1.259 -0.029 -0.1568 1.261 -0.1568
1708776550.1581 1.263 -0.029 -0.1599 1.265 -0.1599
1708776550.1664 1.268 -0.030 -0.1661 1.270 -0.1661
1708776550.1748 1.273 -0.031 -0.1739 1.275 -0.1739
1708776550.1826 1.278 -0.032 -0.1847 1.280 -0.1847
1708776550.1903 1.283 -0.033 -0.1940 1.285 -0.1940
1708776550.1977 1.287 -0.034 -0.1956 1.289 -0.1956
1708776550.2067 1.291 -0.035 -0.2033 1.294 -0.2033
1708776550.2140 1.296 -0.036 -0.2158 1.299 -0.2158
1708776550.2224 1.301 -0.037 -0.2251 1.304 -0.2251
1708776550.2302 1.306 -0.038 -0.2282 1.309 -0.2282
1708776550.2379 1.310 -0.039 -0.2375 1.313 -0.2375
1708776550.2461 1.315 -0.040 -0.2484 1.318 -0.2484
1708776550.2538 1.320 -0.041 -0.2592 1.323 -0.2592
1708776550.2620 1.325 -0.043 -0.2654 1.328 -0.2654
1708776550.2704 1.329 -0.044 -0.2732 1.332 -0.2732
1708776550.2781 1.333 -0.045 -0.2856 1.337 -0.2856
1708776550.2860 1.338 -0.046 -0.2980 1.342 -0.2980
1708776550.2943 1.343 -0.048 -0.3042 1.347 -0.3042
1708776550.3021 1.347 -0.049 -0.3151 1.351 -0.3151
1708776550.3102 1.351 -0.051 -0.3291 1.356 -0.3291
1708776550.3185 1.356 -0.052 -0.3384 1.361 -0.3384
1708776550.3258 1.360 -0.054 -0.3477 1.365 -0.3477
1708776550.3347 1.365 -0.056 -0.3586 1.371 -0.3586
1708776550.3420 1.369 -0.057 -0.3710 1.375 -0.3710
1708776550.3498 1.374 -0.059 -0.3865 1.380 -0.3865
1708776550.3580 1.378 -0.061 -0.3958 1.385 -0.3958
1708776550.3662 1.383 -0.063 -0.4051 1.389 -0.4051
1708776550.3738 1.387 -0.065 -0.4207 1.394 -0.4207
1708776550.3820 1.392 -0.067 -0.4362 1.399 -0.4362
1708776550.3898 1.396 -0.069 -0.4455 1.404 -0.4455
1708776550.3987 1.400 -0.071 -0.4595 1.408 -0.4595
1708776550.4059 1.404 -0.073 -0.4734 1.414 -0.4734
1708776550.4141 1.409 -0.076 -0.4874 1.419 -0.4874
1708776550.4221 1.413 -0.078 -0.4998 1.424 -0.4998
1708776550.4303 1.417 -0.080 -0.5122 1.428 -0.5122
1708776550.4381 1.421 -0.082 -0.5231 1.433 -0.5231
1708776550.4460 1.426 -0.085 -0.5371 1.438 -0.5371
1708776550.4542 1.430 -0.087 -0.5511 1.443 -0.5511
1708776550.4622 1.433 -0.090 -0.5619 1.447 -0.5619
1708776550.4700 1.437 -0.092 -0.5666 1.451 -0.5666
1708776550.4782 1.442 -0.095 -0.5836 1.457 -0.5836
1708776550.4864 1.446 -0.098 -0.6023 1.462 -0.6023
1708776550.4943 1.449 -0.100 -0.6162 1.466 -0.6162
1708776550.5026 1.453 -0.103 -0.6256 1.471 -0.6256
1708776550.5107 1.457 -0.106 -0.6364 1.476 -0.6364
1708776550.5185 1.462 -0.109 -0.6535 1.481 -0.6535
1708776550.5267 1.466 -0.112 -0.6706 1.486 -0.6706
1708776550.5346 1.469 -0.115 -0.6830 1.491 -0.6830
1708776550.5423 1.473 -0.118 -0.6923 1.496 -0.6923
1708776550.5504 1.477 -0.121 -0.7032 1.501 -0.7032
1708776550.5577 1.481 -0.125 -0.7202 1.506 -0.7202
1708776550.5665 1.484 -0.128 -0.7327 1.510 -0.7327
1708776550.5737 1.487 -0.130 -0.7420 1.514 -0.7420
1708776550.5818 1.491 -0.134 -0.7513 1.519 -0.7513
1708776550.5902 1.495 -0.137 -0.7637 1.525 -0.7637
1708776550.5983 1.498 -0.141 -0.7746 1.529 -0.7746
1708776550.6066 1.501 -0.144 -0.7870 1.534 -0.7870
1708776550.6144 1.504 -0.147 -0.7979 1.539 -0.7979
1708776550.6227 1.508 -0.151 -0.8118 1.544 -0.8118
1708776550.6299 1.511 -0.155 -0.8196 1.549 -0.8196
1708776550.6382 1.514 -0.158 -0.8305 1.553 -0.8305
1708776550.6464 1.517 -0.161 -0.8413 1.557 -0.8413
1708776550.6548 1.521 -0.165 -0.8506 1.562 -0.8506
1708776550.6632 1.524 -0.169 -0.8599 1.568 -0.8599
1708776550.6703 1.528 -0.173 -0.8677 1.573 -0.8677
1708776550.6786 1.530 -0.176 -0.8786 1.577 -0.8786
1708776550.6858 1.533 -0.179 -0.8894 1.581 -0.8894
1708776550.6941 1.536 -0.183 -0.8988 1.586 -0.8988
1708776550.7023 1.539 -0.187 -0.9081 1.591 -0.9081
1708776550.7101 1.542 -0.191 -0.9174 1.596 -0.9174
1708776550.7183 1.545 -0.195 -0.9251 1.601 -0.9251
1708776550.7266 1.548 -0.198 -0.9360 1.606 -0.9360
1708776550.7350 1.550 -0.202 -0.9469 1.610 -0.9469
1708776550.7419 1.554 -0.207 -0.9546 1.616 -0.9546
1708776550.7502 1.557 -0.211 -0.9624 1.621 -0.9624
1708776550.7581 1.559 -0.214 -0.9702 1.625 -0.9702
1708776550.7663 1.561 -0.218 -0.9795 1.629 -0.9795
1708776550.7744 1.564 -0.222 -0.9888 1.634 -0.9888
1708776550.7822 1.567 -0.226 -1.0012 1.639 -1.0012
1708776550.7900 1.570 -0.230 -1.0074 1.644 -1.0074
1708776550.7983 1.572 -0.234 -1.0136 1.649 -1.0136
1708776550.8061 1.574 -0.238 -1.0245 1.653 -1.0245
1708776550.8142 1.577 -0.242 -1.0354 1.658 -1.0354
1708776550.8228 1.579 -0.247 -1.0400 1.663 -1.0400
1708776550.8306 1.582 -0.251 -1.0431 1.668 -1.0431
1708776550.8385 1.584 -0.255 -1.0493 1.673 -1.0493
1708776550.8457 1.587 -0.259 -1.0602 1.678 -1.0602
1708776550.8545 1.589 -0.263 -1.0680 1.682 -1.0680
1708776550.8627 1.591 -0.267 -1.0726 1.687 -1.0726
1708776550.8697 1.593 -0.271 -1.0757 1.692 -1.0757
1708776550.8786 1.596 -0.276 -1.0835 1.697 -1.0835
1708776550.8864 1.598 -0.279 -1.0912 1.701 -1.0912
1708776550.8948 1.600 -0.284 -1.0959 1.706 -1.0959
1708776550.9025 1.602 -0.288 -1.0990 1.711 -1.0990
1708776550.9105 1.604 -0.293 -1.1021 1.716 -1.1021
1708776550.9267 1.608 -0.301 -1.1130 1.725 -1.1130
1708776550.9348 1.610 -0.304 -1.1207 1.729 -1.1207
1708776550.9422 1.612 -0.308 -1.1269 1.733 -1.1269
1708776550.9502 1.614 -0.313 -1.1285 1.739 -1.1285
1708776550.9584 1.616 -0.318 -1.1300 1.743 -1.1300
1708776550.9659 1.618 -0.322 -1.1331 1.748 -1.1331
1708776550.9738 1.620 -0.326 -1.1378 1.753 -1.1378
1708776550.9821 1.622 -0.330 -1.1440 1.758 -1.1440
1708776550.9902 1.624 -0.335 -1.1456 1.762 -1.1456
1708776550.9982 1.626 -0.339 -1.1471 1.767 -1.1471
1708776551.0060 1.628 -0.343 -1.1533 1.772 -1.1533
1708776551.0145 1.630 -0.347 -1.1580 1.776 -1.1580
1708776551.0223 1.632 -0.352 -1.1580 1.781 -1.1580
