% Encoder logfile
% 1 	Time (sec)
% 2,3 	enc left, right
% 4,5 	encoder change left, right
1708770896.7718 0 0 0 0
1708770896.7796 0 0 0 0
1708770896.7868 0 0 0 0
1708770896.7954 0 0 0 0
1708770896.8033 0 0 0 0
1708770896.8113 0 0 0 0
1708770896.8189 0 0 0 0
1708770896.8275 0 0 0 0
1708770896.8353 0 0 0 0
1708770896.8429 0 0 0 0
1708770896.8514 0 0 0 0
1708770896.8590 0 0 0 0
1708770896.8666 0 0 0 0
1708770896.8770 0 0 0 0
1708770896.8833 0 0 0 0
1708770896.8919 1 0 1 0
1708770896.9006 4 4 3 4
1708770896.9082 9 10 5 6
1708770896.9160 12 15 3 5
1708770896.9247 14 17 2 2
1708770896.9312 17 20 3 3
1708770896.9400 23 25 6 5
1708770896.9488 28 30 5 5
1708770896.9580 33 35 5 5
1708770896.9640 39 40 6 5
1708770896.9745 46 46 7 6
1708770896.9859 53 53 7 7
1708770896.9886 62 61 9 8
1708770896.9967 70 68 8 7
1708770897.0036 71 69 1 1
1708770897.0129 74 74 3 5
1708770897.0202 85 84 11 10
1708770897.0273 98 95 13 11
1708770897.0353 106 102 8 7
1708770897.0437 112 108 6 6
1708770897.0516 120 116 8 8
1708770897.0593 130 126 10 10
1708770897.0678 142 134 12 8
1708770897.0752 150 141 8 7
1708770897.0832 156 149 6 8
1708770897.0917 164 157 8 8
1708770897.1002 174 165 10 8
1708770897.1080 186 173 12 8
1708770897.1153 194 182 8 9
1708770897.1235 200 191 6 9
1708770897.1320 207 198 7 7
1708770897.1402 216 207 9 9
1708770897.1473 228 217 12 10
1708770897.1561 237 225 9 8
1708770897.1633 242 231 5 6
1708770897.1716 250 240 8 9
1708770897.1800 261 250 11 10
1708770897.1882 271 260 10 10
1708770897.1952 279 269 8 9
1708770897.2041 284 276 5 7
1708770897.2113 291 284 7 8
1708770897.2195 301 294 10 10
1708770897.2279 310 304 9 10
1708770897.2362 316 312 6 8
1708770897.2432 324 321 8 9
1708770897.2521 332 330 8 9
1708770897.2593 340 338 8 8
1708770897.2682 347 347 7 9
1708770897.2766 353 357 6 10
1708770897.2833 361 366 8 9
1708770897.2915 371 376 10 10
1708770897.2993 378 384 7 8
1708770897.3076 384 393 6 9
1708770897.3158 391 404 7 11
1708770897.3237 399 413 8 9
1708770897.3317 409 421 10 8
1708770897.3402 416 430 7 9
1708770897.3480 422 441 6 11
1708770897.3553 429 452 7 11
1708770897.3636 438 460 9 8
1708770897.3712 446 467 8 7
1708770897.3801 453 477 7 10
1708770897.3874 459 488 6 11
1708770897.3952 468 499 9 11
1708770897.4036 477 507 9 8
1708770897.4122 484 514 7 7
1708770897.4201 490 521 6 7
1708770897.4274 498 532 8 11
1708770897.4360 508 545 10 13
1708770897.4432 518 554 10 9
1708770897.4517 525 561 7 7
1708770897.4595 530 567 5 6
1708770897.4677 538 577 8 10
1708770897.4760 548 588 10 11
1708770897.4842 557 597 9 9
1708770897.4912 564 605 7 8
1708770897.4994 571 612 7 7
1708770897.5081 580 620 9 8
1708770897.5162 591 629 11 9
1708770897.5237 600 640 9 11
1708770897.5318 606 648 6 8
1708770897.5400 613 655 7 7
1708770897.5482 623 663 10 8
1708770897.5560 634 672 11 9
1708770897.5639 643 681 9 9
1708770897.5718 650 689 7 8
1708770897.5796 657 696 7 7
1708770897.5874 666 703 9 7
1708770897.5955 677 712 11 9
1708770897.6037 687 722 10 10
1708770897.6114 694 730 7 8
1708770897.6196 702 736 8 6
1708770897.6274 712 743 10 7
1708770897.6357 721 752 9 9
1708770897.6439 729 762 8 10
1708770897.6521 738 770 9 8
1708770897.6599 748 777 10 7
1708770897.6681 756 784 8 7
1708770897.6752 764 793 8 9
1708770897.6836 772 802 8 9
1708770897.6916 783 809 11 7
1708770897.7000 793 816 10 7
1708770897.7073 801 824 8 8
1708770897.7156 808 834 7 10
1708770897.7239 817 842 9 8
1708770897.7320 828 849 11 7
1708770897.7403 837 857 9 8
1708770897.7475 845 866 8 9
1708770897.7555 853 875 8 9
1708770897.7638 863 882 10 7
1708770897.7722 873 888 10 6
1708770897.7796 881 896 8 8
1708770897.7886 889 906 8 10
1708770897.7962 898 915 9 9
1708770897.8032 909 922 11 7
1708770897.8122 917 929 8 7
1708770897.8193 924 937 7 8
1708770897.8276 931 947 7 10
1708770897.8358 941 956 10 9
1708770897.8440 951 963 10 7
1708770897.8518 959 970 8 7
1708770897.8601 967 979 8 9
1708770897.8681 975 989 8 10
1708770897.8759 985 997 10 8
1708770897.8837 995 1004 10 7
1708770897.8919 1003 1012 8 8
1708770897.9001 1009 1022 6 10
1708770897.9073 1017 1031 8 9
1708770897.9154 1027 1038 10 7
1708770897.9232 1036 1045 9 7
1708770897.9318 1043 1054 7 9
1708770897.9392 1050 1064 7 10
1708770897.9482 1059 1073 9 9
1708770897.9553 1069 1081 10 8
1708770897.9633 1079 1089 10 8
1708770897.9721 1086 1097 7 8
1708770897.9801 1092 1106 6 9
1708770897.9873 1101 1116 9 10
1708770897.9960 1111 1123 10 7
1708770898.0040 1120 1129 9 6
1708770898.0112 1127 1138 7 9
1708770898.0194 1135 1148 8 10
1708770898.0273 1144 1157 9 9
1708770898.0362 1153 1164 9 7
1708770898.0440 1162 1172 9 8
1708770898.0521 1170 1181 8 9
1708770898.0593 1178 1191 8 10
1708770898.0675 1187 1200 9 9
1708770898.0757 1195 1206 8 6
1708770898.0836 1203 1214 8 8
1708770898.0914 1212 1223 9 9
1708770898.0997 1221 1233 9 10
1708770898.1079 1228 1241 7 8
1708770898.1152 1236 1248 8 7
1708770898.1234 1245 1257 9 9
1708770898.1313 1254 1267 9 10
1708770898.1400 1261 1275 7 8
1708770898.1476 1269 1283 8 8
1708770898.1559 1278 1291 9 8
1708770898.1636 1288 1301 10 10
1708770898.1718 1296 1310 8 9
1708770898.1796 1303 1318 7 8
1708770898.1882 1312 1325 9 7
1708770898.1958 1322 1334 10 9
1708770898.2040 1331 1346 9 12
1708770898.2117 1338 1354 7 8
1708770898.2200 1346 1360 8 6
1708770898.2277 1356 1367 10 7
1708770898.2355 1366 1377 10 10
1708770898.2437 1374 1387 8 10
1708770898.2513 1381 1396 7 9
1708770898.2601 1390 1402 9 6
1708770898.2679 1400 1409 10 7
1708770898.2759 1410 1419 10 10
1708770898.2832 1417 1429 7 10
1708770898.2914 1424 1437 7 8
1708770898.2999 1432 1444 8 7
1708770898.3077 1443 1452 11 8
1708770898.3159 1453 1461 10 9
1708770898.3238 1461 1469 8 8
1708770898.3316 1467 1477 6 8
1708770898.3397 1476 1485 9 8
1708770898.3480 1486 1494 10 9
1708770898.3558 1495 1503 9 9
1708770898.3638 1502 1510 7 7
1708770898.3720 1509 1518 7 8
1708770898.3794 1519 1527 10 9
1708770898.3876 1529 1536 10 9
1708770898.3959 1537 1544 8 8
1708770898.4036 1544 1551 7 7
1708770898.4115 1553 1559 9 8
1708770898.4199 1564 1568 11 9
1708770898.4272 1572 1577 8 9
1708770898.4355 1579 1584 7 7
1708770898.4438 1587 1592 8 8
1708770898.4517 1597 1600 10 8
1708770898.4593 1608 1610 11 10
1708770898.4678 1615 1619 7 9
1708770898.4759 1621 1626 6 7
1708770898.4837 1629 1633 8 7
1708770898.4920 1640 1643 11 10
1708770898.4995 1651 1652 11 9
1708770898.5078 1658 1660 7 8
1708770898.5161 1665 1668 7 8
1708770898.5239 1674 1676 9 8
1708770898.5320 1684 1686 10 10
1708770898.5392 1693 1695 9 9
1708770898.5472 1700 1702 7 7
1708770898.5554 1707 1708 7 6
1708770898.5640 1715 1718 8 10
1708770898.5717 1726 1728 11 10
1708770898.5796 1736 1736 10 8
1708770898.5880 1743 1743 7 7
1708770898.5958 1750 1751 7 8
1708770898.6040 1759 1761 9 10
1708770898.6112 1768 1770 9 9
1708770898.6200 1777 1778 9 8
1708770898.6277 1784 1784 7 6
1708770898.6353 1792 1794 8 10
1708770898.6432 1801 1804 9 10
1708770898.6515 1809 1812 8 8
1708770898.6598 1817 1819 8 7
1708770898.6676 1826 1828 9 9
1708770898.6757 1835 1838 9 10
1708770898.6837 1843 1846 8 8
1708770898.6914 1850 1854 7 8
1708770898.6996 1858 1863 8 9
1708770898.7080 1867 1873 9 10
1708770898.7157 1877 1882 10 9
1708770898.7237 1885 1889 8 7
1708770898.7315 1892 1896 7 7
1708770898.7393 1900 1906 8 10
1708770898.7475 1909 1917 9 11
1708770898.7558 1918 1925 9 8
1708770898.7643 1925 1931 7 6
1708770898.7714 1933 1940 8 9
1708770898.7792 1942 1949 9 9
1708770898.7881 1951 1957 9 8
1708770898.7957 1957 1965 6 8
1708770898.8039 1964 1974 7 9
1708770898.8119 1975 1984 11 10
1708770898.8201 1985 1992 10 8
1708770898.8279 1992 1999 7 7
1708770898.8356 1999 2008 7 9
1708770898.8438 2007 2017 8 9
1708770898.8514 2017 2025 10 8
1708770898.8600 2027 2033 10 8
1708770898.8682 2034 2042 7 9
1708770898.8754 2041 2051 7 9
1708770898.8838 2050 2060 9 9
1708770898.8920 2060 2067 10 7
1708770898.9002 2070 2075 10 8
1708770898.9077 2077 2085 7 10
1708770898.9159 2084 2095 7 10
1708770898.9241 2092 2103 8 8
1708770898.9315 2103 2109 11 6
1708770898.9397 2114 2118 11 9
1708770898.9477 2121 2128 7 10
1708770898.9554 2127 2137 6 9
1708770898.9636 2136 2145 9 8
1708770898.9718 2146 2151 10 6
1708770898.9796 2155 2160 9 9
1708770898.9878 2163 2169 8 9
1708770898.9958 2170 2178 7 9
1708770899.0039 2179 2185 9 7
1708770899.0120 2189 2193 10 8
1708770899.0192 2198 2202 9 9
1708770899.0278 2205 2212 7 10
1708770899.0362 2212 2220 7 8
1708770899.0432 2221 2227 9 7
1708770899.0521 2231 2236 10 9
1708770899.0596 2239 2245 8 9
1708770899.0678 2247 2253 8 8
1708770899.0756 2256 2261 9 8
1708770899.0842 2266 2269 10 8
1708770899.0914 2274 2277 8 8
1708770899.0997 2282 2286 8 9
1708770899.1078 2292 2294 10 8
1708770899.1155 2301 2301 9 7
1708770899.1238 2308 2310 7 9
1708770899.1318 2315 2319 7 9
1708770899.1401 2325 2328 10 9
1708770899.1472 2335 2335 10 7
1708770899.1554 2344 2343 9 8
1708770899.1636 2350 2352 6 9
1708770899.1722 2358 2362 8 10
1708770899.1800 2368 2371 10 9
1708770899.1875 2379 2378 11 7
1708770899.1953 2387 2385 8 7
1708770899.2035 2393 2394 6 9
1708770899.2117 2401 2404 8 10
1708770899.2193 2411 2412 10 8
1708770899.2281 2421 2420 10 8
1708770899.2353 2429 2427 8 7
1708770899.2434 2436 2437 7 10
1708770899.2516 2444 2447 8 10
1708770899.2596 2453 2455 9 8
1708770899.2679 2463 2461 10 6
1708770899.2754 2472 2470 9 9
1708770899.2833 2479 2480 7 10
1708770899.2921 2485 2488 6 8
1708770899.2993 2494 2495 9 7
1708770899.3073 2504 2503 10 8
1708770899.3154 2513 2513 9 10
1708770899.3239 2520 2522 7 9
1708770899.3317 2527 2529 7 7
1708770899.3398 2536 2537 9 8
1708770899.3480 2547 2547 11 10
1708770899.3561 2556 2557 9 10
1708770899.3638 2563 2564 7 7
1708770899.3714 2570 2571 7 7
1708770899.3792 2579 2580 9 9
1708770899.3880 2588 2590 9 10
1708770899.3962 2596 2599 8 9
1708770899.4032 2605 2608 9 9
1708770899.4122 2613 2615 8 7
1708770899.4196 2620 2622 7 7
1708770899.4274 2628 2631 8 9
1708770899.4362 2636 2642 8 11
1708770899.4442 2645 2651 9 9
1708770899.4514 2655 2658 10 7
1708770899.4592 2664 2666 9 8
1708770899.4675 2670 2676 6 10
1708770899.4752 2676 2686 6 10
1708770899.4837 2685 2693 9 7
1708770899.4918 2696 2700 11 7
1708770899.4995 2705 2708 9 8
1708770899.5073 2711 2719 6 11
1708770899.5156 2717 2730 6 11
1708770899.5238 2725 2738 8 8
1708770899.5320 2734 2745 9 7
1708770899.5403 2744 2754 10 9
1708770899.5478 2752 2765 8 11
1708770899.5556 2758 2775 6 10
1708770899.5638 2765 2782 7 7
1708770899.5721 2774 2789 9 7
1708770899.5794 2784 2798 10 9
1708770899.5876 2792 2809 8 11
1708770899.5958 2798 2819 6 10
1708770899.6035 2805 2826 7 7
1708770899.6117 2815 2834 10 8
1708770899.6200 2825 2844 10 10
1708770899.6285 2833 2855 8 11
1708770899.6359 2839 2863 6 8
1708770899.6442 2847 2871 8 8
1708770899.6512 2857 2880 10 9
1708770899.6595 2866 2890 9 10
1708770899.6676 2872 2897 6 7
1708770899.6758 2879 2904 7 7
1708770899.6836 2889 2913 10 9
1708770899.6918 2898 2924 9 11
1708770899.6997 2906 2934 8 10
1708770899.7079 2913 2942 7 8
1708770899.7160 2921 2950 8 8
1708770899.7237 2930 2959 9 9
1708770899.7315 2939 2968 9 9
1708770899.7397 2945 2976 6 8
1708770899.7475 2951 2985 6 9
1708770899.7557 2960 2994 9 9
1708770899.7644 2971 3003 11 9
1708770899.7722 2979 3012 8 9
1708770899.7799 2986 3021 7 9
1708770899.7882 2993 3030 7 9
1708770899.7959 3002 3039 9 9
1708770899.8040 3011 3048 9 9
1708770899.8113 3018 3057 7 9
1708770899.8197 3024 3066 6 9
1708770899.8285 3031 3075 7 9
1708770899.8357 3041 3085 10 10
1708770899.8432 3051 3095 10 10
1708770899.8515 3059 3103 8 8
1708770899.8597 3065 3111 6 8
1708770899.8674 3072 3121 7 10
1708770899.8756 3080 3132 8 11
1708770899.8834 3089 3142 9 10
1708770899.8913 3096 3149 7 7
1708770899.8996 3102 3157 6 8
1708770899.9079 3111 3167 9 10
1708770899.9156 3120 3178 9 11
1708770899.9238 3128 3188 8 10
1708770899.9316 3134 3196 6 8
1708770899.9392 3141 3204 7 8
1708770899.9477 3149 3214 8 10
1708770899.9560 3158 3224 9 10
1708770899.9637 3165 3234 7 10
1708770899.9719 3172 3242 7 8
1708770899.9800 3179 3249 7 7
1708770899.9876 3187 3259 8 10
1708770899.9958 3196 3270 9 11
1708770900.0040 3204 3279 8 9
1708770900.0117 3210 3286 6 7
1708770900.0199 3217 3295 7 9
1708770900.0276 3225 3306 8 11
1708770900.0354 3234 3316 9 10
1708770900.0438 3242 3323 8 7
1708770900.0521 3248 3331 6 8
1708770900.0598 3255 3342 7 11
1708770900.0680 3264 3352 9 10
1708770900.0760 3274 3361 10 9
1708770900.0838 3280 3369 6 8
1708770900.0919 3286 3378 6 9
1708770900.1002 3294 3388 8 10
1708770900.1079 3304 3398 10 10
1708770900.1161 3314 3405 10 7
1708770900.1233 3320 3412 6 7
1708770900.1317 3326 3421 6 9
1708770900.1400 3334 3432 8 11
1708770900.1477 3344 3441 10 9
1708770900.1558 3354 3449 10 8
1708770900.1643 3361 3455 7 6
1708770900.1715 3369 3465 8 10
1708770900.1799 3377 3475 8 10
1708770900.1880 3386 3484 9 9
1708770900.1952 3396 3491 10 7
1708770900.2040 3405 3499 9 8
1708770900.2114 3412 3508 7 9
1708770900.2199 3420 3517 8 9
1708770900.2272 3430 3526 10 9
1708770900.2354 3439 3533 9 7
1708770900.2436 3446 3540 7 7
1708770900.2512 3454 3550 8 10
1708770900.2594 3464 3560 10 10
1708770900.2672 3473 3568 9 8
1708770900.2761 3481 3574 8 6
1708770900.2842 3489 3581 8 7
1708770900.2915 3499 3590 10 9
1708770900.2992 3508 3599 9 9
1708770900.3074 3515 3606 7 7
1708770900.3156 3523 3613 8 7
1708770900.3233 3533 3621 10 8
1708770900.3319 3543 3631 10 10
1708770900.3402 3551 3640 8 9
1708770900.3477 3558 3647 7 7
1708770900.3560 3567 3654 9 7
1708770900.3642 3578 3663 11 9
1708770900.3720 3586 3673 8 10
1708770900.3798 3593 3681 7 8
1708770900.3879 3602 3688 9 7
1708770900.3956 3612 3696 10 8
1708770900.4037 3621 3706 9 10
1708770900.4120 3628 3714 7 8
1708770900.4192 3637 3723 9 9
1708770900.4280 3647 3731 10 8
1708770900.4360 3655 3738 8 7
1708770900.4438 3663 3747 8 9
1708770900.4520 3672 3756 9 9
1708770900.4602 3682 3764 10 8
1708770900.4682 3692 3772 10 8
1708770900.4760 3699 3779 7 7
1708770900.4838 3706 3788 7 9
1708770900.4916 3715 3798 9 10
1708770900.4997 3726 3807 11 9
1708770900.5080 3735 3813 9 6
1708770900.5157 3742 3819 7 6
1708770900.5237 3751 3828 9 9
1708770900.5321 3761 3838 10 10
1708770900.5398 3770 3847 9 9
1708770900.5473 3777 3854 7 7
1708770900.5556 3786 3861 9 7
1708770900.5633 3796 3869 10 8
1708770900.5713 3805 3878 9 9
1708770900.5792 3812 3886 7 8
1708770900.5880 3821 3893 9 7
1708770900.5955 3831 3901 10 8
1708770900.6042 3841 3910 10 9
1708770900.6121 3848 3918 7 8
1708770900.6199 3856 3926 8 8
1708770900.6278 3865 3935 9 9
1708770900.6355 3875 3943 10 8
1708770900.6440 3884 3951 9 8
1708770900.6522 3892 3959 8 8
1708770900.6597 3901 3967 9 8
1708770900.6679 3911 3977 10 10
1708770900.6755 3919 3985 8 8
1708770900.6838 3927 3991 8 6
1708770900.6920 3935 3998 8 7
1708770900.6992 3945 4008 10 10
1708770900.7073 3955 4018 10 10
1708770900.7154 3962 4025 7 7
1708770900.7237 3968 4032 6 7
1708770900.7315 3978 4041 10 9
1708770900.7398 3988 4050 10 9
1708770900.7479 3997 4058 9 8
1708770900.7557 4005 4065 8 7
1708770900.7645 4013 4073 8 8
1708770900.7717 4023 4083 10 10
1708770900.7792 4033 4091 10 8
1708770900.7885 4040 4098 7 7
1708770900.7955 4046 4105 6 7
1708770900.8038 4054 4114 8 9
1708770900.8120 4062 4122 8 8
1708770900.8195 4072 4129 10 7
1708770900.8276 4082 4138 10 9
1708770900.8358 4091 4147 9 9
1708770900.8432 4099 4156 8 9
1708770900.8521 4107 4163 8 7
1708770900.8603 4117 4170 10 7
1708770900.8674 4128 4179 11 9
1708770900.8752 4136 4188 8 9
1708770900.8833 4141 4196 5 8
1708770900.8918 4150 4203 9 7
1708770900.8995 4161 4211 11 8
1708770900.9077 4171 4221 10 10
1708770900.9160 4179 4229 8 8
1708770900.9237 4185 4236 6 7
1708770900.9317 4194 4245 9 9
1708770900.9400 4204 4254 10 9
1708770900.9477 4214 4263 10 9
1708770900.9559 4221 4270 7 7
1708770900.9632 4229 4277 8 7
1708770900.9718 4238 4286 9 9
1708770900.9796 4248 4296 10 10
1708770900.9879 4256 4304 8 8
1708770900.9956 4264 4310 8 6
1708770901.0038 4272 4318 8 8
1708770901.0120 4282 4328 10 10
1708770901.0200 4292 4338 10 10
1708770901.0277 4301 4345 9 7
1708770901.0359 4308 4352 7 7
1708770901.0437 4315 4361 7 9
1708770901.0519 4324 4371 9 10
1708770901.0602 4334 4380 10 9
1708770901.0681 4343 4387 9 7
1708770901.0763 4351 4395 8 8
1708770901.0843 4358 4404 7 9
1708770901.0918 4368 4413 10 9
1708770901.0999 4378 4422 10 9
1708770901.1074 4386 4429 8 7
1708770901.1152 4394 4436 8 7
1708770901.1237 4402 4445 8 9
1708770901.1316 4411 4455 9 10
1708770901.1399 4421 4463 10 8
1708770901.1481 4430 4471 9 8
1708770901.1555 4437 4480 7 9
1708770901.1632 4445 4489 8 9
1708770901.1714 4454 4496 9 7
1708770901.1793 4464 4504 10 8
1708770901.1880 4472 4513 8 9
1708770901.1959 4479 4522 7 9
1708770901.2039 4487 4530 8 8
1708770901.2116 4497 4538 10 8
1708770901.2198 4507 4546 10 8
1708770901.2277 4514 4556 7 10
1708770901.2354 4521 4565 7 9
1708770901.2437 4530 4572 9 7
1708770901.2520 4540 4579 10 7
1708770901.2597 4549 4588 9 9
1708770901.2674 4556 4598 7 10
1708770901.2757 4563 4607 7 9
1708770901.2841 4571 4614 8 7
1708770901.2916 4582 4622 11 8
1708770901.2998 4592 4631 10 9
1708770901.3076 4599 4640 7 9
1708770901.3158 4605 4648 6 8
1708770901.3235 4613 4655 8 7
1708770901.3317 4624 4664 11 9
1708770901.3402 4633 4675 9 11
1708770901.3474 4641 4683 8 8
1708770901.3562 4648 4691 7 8
1708770901.3633 4657 4698 9 7
1708770901.3717 4667 4707 10 9
1708770901.3799 4674 4717 7 10
1708770901.3881 4681 4726 7 9
1708770901.3953 4690 4734 9 8
1708770901.4032 4701 4741 11 7
1708770901.4116 4709 4750 8 9
1708770901.4198 4715 4760 6 10
1708770901.4273 4724 4768 9 8
1708770901.4356 4733 4775 9 7
1708770901.4438 4742 4783 9 8
1708770901.4515 4749 4792 7 9
1708770901.4597 4757 4802 8 10
1708770901.4678 4767 4810 10 8
1708770901.4755 4777 4817 10 7
1708770901.4833 4785 4825 8 8
1708770901.4915 4792 4835 7 10
1708770901.4995 4800 4844 8 9
1708770901.5077 4810 4852 10 8
1708770901.5157 4819 4859 9 7
1708770901.5276 4827 4868 8 9
1708770901.5322 4834 4878 7 10
1708770901.5393 4842 4887 8 9
1708770901.5482 4849 4892 7 5
1708770901.5554 4856 4897 7 5
1708770901.5635 4866 4906 10 9
1708770901.5713 4876 4917 10 11
1708770901.5802 4884 4926 8 9
1708770901.5878 4890 4933 6 7
1708770901.5956 4899 4940 9 7
1708770901.6037 4909 4949 10 9
1708770901.6120 4917 4959 8 10
1708770901.6201 4925 4966 8 7
1708770901.6279 4933 4973 8 7
1708770901.6352 4943 4980 10 7
1708770901.6435 4952 4990 9 10
1708770901.6517 4958 4999 6 9
1708770901.6593 4965 5007 7 8
1708770901.6673 4975 5015 10 8
1708770901.6756 4986 5024 11 9
1708770901.6836 4994 5033 8 9
1708770901.6915 5001 5042 7 9
1708770901.7000 5009 5049 8 7
1708770901.7073 5018 5057 9 8
1708770901.7156 5028 5066 10 9
1708770901.7240 5036 5075 8 9
1708770901.7320 5042 5083 6 8
1708770901.7397 5051 5092 9 9
1708770901.7482 5061 5101 10 9
1708770901.7555 5070 5110 9 9
1708770901.7643 5078 5117 8 7
1708770901.7715 5084 5125 6 8
1708770901.7794 5093 5134 9 9
1708770901.7875 5104 5142 11 8
1708770901.7959 5113 5150 9 8
1708770901.8042 5120 5159 7 9
1708770901.8121 5127 5169 7 10
1708770901.8196 5137 5178 10 9
1708770901.8274 5147 5185 10 7
1708770901.8353 5154 5192 7 7
1708770901.8441 5161 5201 7 9
1708770901.8513 5170 5211 9 10
1708770901.8592 5180 5219 10 8
1708770901.8675 5188 5227 8 8
1708770901.8756 5195 5235 7 8
1708770901.8838 5204 5245 9 10
1708770901.8914 5214 5254 10 9
1708770901.8997 5222 5261 8 7
1708770901.9076 5229 5268 7 7
1708770901.9159 5237 5276 8 8
1708770901.9240 5247 5286 10 10
1708770901.9314 5257 5295 10 9
1708770901.9397 5264 5302 7 7
1708770901.9474 5270 5308 6 6
1708770901.9554 5278 5317 8 9
1708770901.9634 5289 5328 11 11
1708770901.9721 5299 5336 10 8
1708770901.9795 5306 5344 7 8
1708770901.9879 5314 5352 8 8
1708770901.9962 5321 5362 7 10
1708770902.0040 5331 5372 10 10
1708770902.0122 5341 5381 10 9
1708770902.0197 5349 5388 8 7
1708770902.0274 5356 5396 7 8
1708770902.0357 5364 5406 8 10
1708770902.0440 5373 5415 9 9
1708770902.0517 5383 5423 10 8
1708770902.0600 5391 5432 8 9
1708770902.0673 5398 5441 7 9
1708770902.0763 5405 5450 7 9
1708770902.0841 5415 5458 10 8
1708770902.0914 5424 5466 9 8
