% Pose without folding and reset (log_20240224_113455.831/log_pose_abs.txt)
% 1 	Time (sec)
% 2,3 	Position x,y (m)
% 4 	heading (rad)
% 5 	Driven distance (m) - signed
% 6 	Turned angle (rad) - signed
1708770896.7718 0.000 0.000 0.0000 0.000 0.0000
1708770896.7796 0.000 0.000 0.0000 0.000 0.0000
1708770896.7868 0.000 0.000 0.0000 0.000 0.0000
1708770896.7954 0.000 0.000 0.0000 0.000 0.0000
1708770896.8033 0.000 0.000 0.0000 0.000 0.0000
1708770896.8113 0.000 0.000 0.0000 0.000 0.0000
1708770896.8189 0.000 0.000 0.0000 0.000 0.0000
1708770896.8275 0.000 0.000 0.0000 0.000 0.0000
1708770896.8353 0.000 0.000 0.0000 0.000 0.0000
1708770896.8429 0.000 0.000 0.0000 0.000 0.0000
1708770896.8514 0.000 0.000 0.0000 0.000 0.0000
1708770896.8590 0.000 0.000 0.0000 0.000 0.0000
1708770896.8666 0.000 0.000 0.0000 0.000 0.0000
1708770896.8770 0.000 0.000 0.0000 0.000 0.0000
1708770896.8833 0.000 0.000 0.0000 0.000 0.0000
1708770896.8919 0.000 0.000 0.0000 0.000 0.0000
1708770896.9006 0.001 0.000 0.0016 0.001 0.0016
1708770896.9082 0.003 0.000 0.0031 0.003 0.0031
1708770896.9160 0.005 0.000 0.0062 0.005 0.0062
1708770896.9247 0.006 0.000 0.0062 0.006 0.0062
1708770896.9312 0.007 0.000 0.0062 0.007 0.0062
1708770896.9400 0.009 0.000 0.0047 0.009 0.0047
1708770896.9488 0.011 0.000 0.0047 0.011 0.0047
1708770896.9580 0.013 0.000 0.0047 0.013 0.0047
1708770896.9640 0.015 0.000 0.0031 0.015 0.0031
1708770896.9745 0.017 0.000 0.0016 0.017 0.0016
1708770896.9859 0.020 0.000 0.0016 0.020 0.0016
1708770896.9886 0.023 0.000 -0.0000 0.023 -0.0000
1708770896.9967 0.026 0.000 -0.0016 0.026 -0.0016
1708770897.0036 0.026 0.000 -0.0016 0.026 -0.0016
1708770897.0129 0.028 0.000 0.0016 0.028 0.0016
1708770897.0202 0.032 0.000 -0.0000 0.032 -0.0000
1708770897.0273 0.036 0.000 -0.0031 0.036 -0.0031
1708770897.0353 0.039 0.000 -0.0047 0.039 -0.0047
1708770897.0437 0.041 0.000 -0.0047 0.041 -0.0047
1708770897.0516 0.044 0.000 -0.0047 0.044 -0.0047
1708770897.0593 0.048 0.000 -0.0047 0.048 -0.0047
1708770897.0678 0.052 -0.000 -0.0109 0.052 -0.0109
1708770897.0752 0.055 -0.000 -0.0124 0.055 -0.0124
1708770897.0832 0.057 -0.000 -0.0093 0.057 -0.0093
1708770897.0917 0.060 -0.000 -0.0093 0.060 -0.0093
1708770897.1002 0.064 -0.000 -0.0124 0.064 -0.0124
1708770897.1080 0.068 -0.000 -0.0186 0.068 -0.0186
1708770897.1153 0.071 -0.000 -0.0171 0.071 -0.0171
1708770897.1235 0.074 -0.000 -0.0124 0.074 -0.0124
1708770897.1320 0.076 -0.000 -0.0124 0.076 -0.0124
1708770897.1402 0.080 -0.000 -0.0124 0.080 -0.0124
1708770897.1473 0.084 -0.000 -0.0155 0.084 -0.0155
1708770897.1561 0.087 -0.000 -0.0171 0.087 -0.0171
1708770897.1633 0.089 -0.001 -0.0155 0.089 -0.0155
1708770897.1716 0.092 -0.001 -0.0140 0.092 -0.0140
1708770897.1800 0.096 -0.001 -0.0155 0.096 -0.0155
1708770897.1882 0.100 -0.001 -0.0155 0.100 -0.0155
1708770897.1952 0.103 -0.001 -0.0140 0.103 -0.0140
1708770897.2041 0.105 -0.001 -0.0109 0.105 -0.0109
1708770897.2113 0.108 -0.001 -0.0093 0.108 -0.0093
1708770897.2195 0.112 -0.001 -0.0093 0.112 -0.0093
1708770897.2279 0.116 -0.001 -0.0078 0.116 -0.0078
1708770897.2362 0.118 -0.001 -0.0047 0.118 -0.0047
1708770897.2432 0.121 -0.001 -0.0031 0.121 -0.0031
1708770897.2521 0.125 -0.001 -0.0016 0.125 -0.0016
1708770897.2593 0.128 -0.001 -0.0016 0.128 -0.0016
1708770897.2682 0.131 -0.001 0.0016 0.131 0.0016
1708770897.2766 0.134 -0.001 0.0078 0.134 0.0078
1708770897.2833 0.137 -0.001 0.0093 0.137 0.0093
1708770897.2915 0.141 -0.001 0.0093 0.141 0.0093
1708770897.2993 0.144 -0.001 0.0109 0.144 0.0109
1708770897.3076 0.146 -0.001 0.0155 0.146 0.0155
1708770897.3158 0.150 -0.001 0.0217 0.150 0.0217
1708770897.3237 0.153 -0.001 0.0233 0.153 0.0233
1708770897.3317 0.156 -0.001 0.0202 0.156 0.0202
1708770897.3402 0.159 -0.000 0.0233 0.159 0.0233
1708770897.3480 0.163 -0.000 0.0310 0.163 0.0310
1708770897.3553 0.166 -0.000 0.0373 0.166 0.0373
1708770897.3636 0.169 -0.000 0.0357 0.169 0.0357
1708770897.3712 0.172 -0.000 0.0341 0.172 0.0341
1708770897.3801 0.175 0.000 0.0388 0.175 0.0388
1708770897.3874 0.178 0.000 0.0466 0.178 0.0466
1708770897.3952 0.182 0.000 0.0497 0.182 0.0497
1708770897.4036 0.185 0.001 0.0481 0.185 0.0481
1708770897.4122 0.188 0.001 0.0481 0.188 0.0481
1708770897.4201 0.190 0.001 0.0497 0.190 0.0497
1708770897.4274 0.194 0.001 0.0543 0.194 0.0543
1708770897.4360 0.198 0.001 0.0590 0.198 0.0590
1708770897.4432 0.202 0.001 0.0574 0.202 0.0574
1708770897.4517 0.205 0.002 0.0574 0.205 0.0574
1708770897.4595 0.207 0.002 0.0590 0.207 0.0590
1708770897.4677 0.210 0.002 0.0621 0.210 0.0621
1708770897.4760 0.214 0.002 0.0636 0.214 0.0636
1708770897.4842 0.217 0.002 0.0636 0.217 0.0636
1708770897.4912 0.220 0.003 0.0652 0.220 0.0652
1708770897.4994 0.223 0.003 0.0652 0.223 0.0652
1708770897.5081 0.226 0.003 0.0636 0.226 0.0636
1708770897.5162 0.230 0.003 0.0605 0.230 0.0605
1708770897.5237 0.234 0.003 0.0636 0.234 0.0636
1708770897.5318 0.236 0.004 0.0667 0.236 0.0667
1708770897.5400 0.239 0.004 0.0667 0.239 0.0667
1708770897.5482 0.242 0.004 0.0636 0.242 0.0636
1708770897.5560 0.246 0.004 0.0605 0.246 0.0605
1708770897.5639 0.249 0.004 0.0605 0.250 0.0605
1708770897.5718 0.252 0.005 0.0621 0.252 0.0621
1708770897.5796 0.255 0.005 0.0621 0.255 0.0621
1708770897.5874 0.258 0.005 0.0590 0.258 0.0590
1708770897.5955 0.262 0.005 0.0559 0.262 0.0559
1708770897.6037 0.265 0.005 0.0559 0.266 0.0559
1708770897.6114 0.268 0.006 0.0574 0.268 0.0574
1708770897.6196 0.271 0.006 0.0543 0.271 0.0543
1708770897.6274 0.274 0.006 0.0497 0.274 0.0497
1708770897.6357 0.277 0.006 0.0497 0.278 0.0497
1708770897.6439 0.281 0.006 0.0528 0.281 0.0528
1708770897.6521 0.284 0.006 0.0512 0.284 0.0512
1708770897.6599 0.287 0.006 0.0466 0.287 0.0466
1708770897.6681 0.290 0.007 0.0450 0.290 0.0450
1708770897.6752 0.293 0.007 0.0466 0.293 0.0466
1708770897.6836 0.296 0.007 0.0481 0.297 0.0481
1708770897.6916 0.300 0.007 0.0419 0.300 0.0419
1708770897.7000 0.303 0.007 0.0373 0.303 0.0373
1708770897.7073 0.306 0.007 0.0373 0.306 0.0373
1708770897.7156 0.309 0.007 0.0419 0.309 0.0419
1708770897.7239 0.312 0.008 0.0404 0.313 0.0404
1708770897.7320 0.316 0.008 0.0341 0.316 0.0341
1708770897.7403 0.319 0.008 0.0326 0.319 0.0326
1708770897.7475 0.322 0.008 0.0341 0.323 0.0341
1708770897.7555 0.325 0.008 0.0357 0.326 0.0357
1708770897.7638 0.329 0.008 0.0310 0.329 0.0310
1708770897.7722 0.332 0.008 0.0248 0.332 0.0248
1708770897.7796 0.335 0.008 0.0248 0.335 0.0248
1708770897.7886 0.338 0.008 0.0279 0.338 0.0279
1708770897.7962 0.341 0.008 0.0279 0.342 0.0279
1708770897.8032 0.345 0.009 0.0217 0.345 0.0217
1708770897.8122 0.348 0.009 0.0202 0.348 0.0202
1708770897.8193 0.351 0.009 0.0217 0.351 0.0217
1708770897.8276 0.354 0.009 0.0264 0.354 0.0264
1708770897.8358 0.357 0.009 0.0248 0.358 0.0248
1708770897.8440 0.361 0.009 0.0202 0.361 0.0202
1708770897.8518 0.363 0.009 0.0186 0.364 0.0186
1708770897.8601 0.367 0.009 0.0202 0.367 0.0202
1708770897.8681 0.370 0.009 0.0233 0.370 0.0233
1708770897.8759 0.373 0.009 0.0202 0.374 0.0202
1708770897.8837 0.377 0.009 0.0155 0.377 0.0155
1708770897.8919 0.380 0.009 0.0155 0.380 0.0155
1708770897.9001 0.383 0.009 0.0217 0.383 0.0217
1708770897.9073 0.386 0.009 0.0233 0.386 0.0233
1708770897.9154 0.389 0.009 0.0186 0.389 0.0186
1708770897.9232 0.392 0.010 0.0155 0.392 0.0155
1708770897.9318 0.395 0.010 0.0186 0.395 0.0186
1708770897.9392 0.398 0.010 0.0233 0.399 0.0233
1708770897.9482 0.402 0.010 0.0233 0.402 0.0233
1708770897.9553 0.405 0.010 0.0202 0.405 0.0202
1708770897.9633 0.408 0.010 0.0171 0.409 0.0171
1708770897.9721 0.411 0.010 0.0186 0.412 0.0186
1708770897.9801 0.414 0.010 0.0233 0.414 0.0233
1708770897.9873 0.418 0.010 0.0248 0.418 0.0248
1708770897.9960 0.421 0.010 0.0202 0.421 0.0202
1708770898.0040 0.424 0.010 0.0155 0.424 0.0155
1708770898.0112 0.427 0.010 0.0186 0.427 0.0186
1708770898.0194 0.430 0.010 0.0217 0.430 0.0217
1708770898.0273 0.434 0.010 0.0217 0.434 0.0217
1708770898.0362 0.437 0.010 0.0186 0.437 0.0186
1708770898.0440 0.440 0.010 0.0171 0.440 0.0171
1708770898.0521 0.443 0.011 0.0186 0.443 0.0186
1708770898.0593 0.446 0.011 0.0217 0.447 0.0217
1708770898.0675 0.450 0.011 0.0217 0.450 0.0217
1708770898.0757 0.452 0.011 0.0186 0.453 0.0186
1708770898.0836 0.455 0.011 0.0186 0.456 0.0186
1708770898.0914 0.459 0.011 0.0186 0.459 0.0186
1708770898.0997 0.462 0.011 0.0202 0.463 0.0202
1708770898.1079 0.465 0.011 0.0217 0.465 0.0217
1708770898.1152 0.468 0.011 0.0202 0.468 0.0202
1708770898.1234 0.471 0.011 0.0202 0.472 0.0202
1708770898.1313 0.475 0.011 0.0217 0.475 0.0217
1708770898.1400 0.478 0.011 0.0233 0.478 0.0233
1708770898.1476 0.481 0.011 0.0233 0.481 0.0233
1708770898.1559 0.484 0.011 0.0217 0.484 0.0217
1708770898.1636 0.488 0.011 0.0217 0.488 0.0217
1708770898.1718 0.491 0.012 0.0233 0.491 0.0233
1708770898.1796 0.494 0.012 0.0248 0.494 0.0248
1708770898.1882 0.497 0.012 0.0217 0.497 0.0217
1708770898.1958 0.500 0.012 0.0202 0.501 0.0202
1708770898.2040 0.504 0.012 0.0248 0.505 0.0248
1708770898.2117 0.507 0.012 0.0264 0.508 0.0264
1708770898.2200 0.510 0.012 0.0233 0.510 0.0233
1708770898.2277 0.513 0.012 0.0186 0.513 0.0186
1708770898.2355 0.517 0.012 0.0186 0.517 0.0186
1708770898.2437 0.520 0.012 0.0217 0.521 0.0217
1708770898.2513 0.523 0.012 0.0248 0.524 0.0248
1708770898.2601 0.526 0.012 0.0202 0.526 0.0202
1708770898.2679 0.529 0.012 0.0155 0.530 0.0155
1708770898.2759 0.533 0.012 0.0155 0.533 0.0155
1708770898.2832 0.536 0.013 0.0202 0.537 0.0202
1708770898.2914 0.539 0.013 0.0217 0.539 0.0217
1708770898.2999 0.542 0.013 0.0202 0.542 0.0202
1708770898.3077 0.546 0.013 0.0155 0.546 0.0155
1708770898.3159 0.549 0.013 0.0140 0.549 0.0140
1708770898.3238 0.552 0.013 0.0140 0.552 0.0140
1708770898.3316 0.555 0.013 0.0171 0.555 0.0171
1708770898.3397 0.558 0.013 0.0155 0.558 0.0155
1708770898.3480 0.562 0.013 0.0140 0.562 0.0140
1708770898.3558 0.565 0.013 0.0140 0.565 0.0140
1708770898.3638 0.568 0.013 0.0140 0.568 0.0140
1708770898.3720 0.570 0.013 0.0155 0.571 0.0155
1708770898.3794 0.574 0.013 0.0140 0.574 0.0140
1708770898.3876 0.578 0.013 0.0124 0.578 0.0124
1708770898.3959 0.581 0.013 0.0124 0.581 0.0124
1708770898.4036 0.583 0.013 0.0124 0.584 0.0124
1708770898.4115 0.586 0.013 0.0109 0.587 0.0109
1708770898.4199 0.590 0.013 0.0078 0.591 0.0078
1708770898.4272 0.593 0.013 0.0093 0.594 0.0093
1708770898.4355 0.596 0.013 0.0093 0.596 0.0093
1708770898.4438 0.599 0.013 0.0093 0.599 0.0093
1708770898.4517 0.602 0.013 0.0062 0.603 0.0062
1708770898.4593 0.606 0.013 0.0047 0.607 0.0047
1708770898.4678 0.609 0.013 0.0078 0.610 0.0078
1708770898.4759 0.612 0.013 0.0093 0.612 0.0093
1708770898.4837 0.615 0.013 0.0078 0.615 0.0078
1708770898.4920 0.619 0.014 0.0062 0.619 0.0062
1708770898.4995 0.622 0.014 0.0031 0.623 0.0031
1708770898.5078 0.625 0.014 0.0047 0.626 0.0047
1708770898.5161 0.628 0.014 0.0062 0.628 0.0062
1708770898.5239 0.631 0.014 0.0047 0.632 0.0047
1708770898.5320 0.635 0.014 0.0047 0.635 0.0047
1708770898.5392 0.638 0.014 0.0047 0.639 0.0047
1708770898.5472 0.641 0.014 0.0047 0.641 0.0047
1708770898.5554 0.644 0.014 0.0031 0.644 0.0031
1708770898.5640 0.647 0.014 0.0062 0.647 0.0062
1708770898.5717 0.651 0.014 0.0047 0.651 0.0047
1708770898.5796 0.654 0.014 0.0016 0.655 0.0016
1708770898.5880 0.657 0.014 0.0016 0.657 0.0016
1708770898.5958 0.660 0.014 0.0031 0.660 0.0031
1708770898.6040 0.663 0.014 0.0047 0.664 0.0047
1708770898.6112 0.667 0.014 0.0047 0.667 0.0047
1708770898.6200 0.670 0.014 0.0031 0.670 0.0031
1708770898.6277 0.672 0.014 0.0016 0.673 0.0016
1708770898.6353 0.676 0.014 0.0047 0.676 0.0047
1708770898.6432 0.679 0.014 0.0062 0.680 0.0062
1708770898.6515 0.682 0.014 0.0062 0.683 0.0062
1708770898.6598 0.685 0.014 0.0047 0.686 0.0047
1708770898.6676 0.689 0.014 0.0047 0.689 0.0047
1708770898.6757 0.692 0.014 0.0062 0.693 0.0062
1708770898.6837 0.695 0.014 0.0062 0.696 0.0062
1708770898.6914 0.698 0.014 0.0078 0.698 0.0078
1708770898.6996 0.701 0.014 0.0093 0.702 0.0093
1708770898.7080 0.705 0.014 0.0109 0.705 0.0109
1708770898.7157 0.708 0.014 0.0093 0.709 0.0093
1708770898.7237 0.711 0.014 0.0078 0.712 0.0078
1708770898.7315 0.714 0.014 0.0078 0.714 0.0078
1708770898.7393 0.717 0.014 0.0109 0.718 0.0109
1708770898.7475 0.721 0.014 0.0140 0.721 0.0140
1708770898.7558 0.724 0.014 0.0124 0.725 0.0124
1708770898.7643 0.727 0.014 0.0109 0.727 0.0109
1708770898.7714 0.730 0.014 0.0124 0.730 0.0124
1708770898.7792 0.733 0.014 0.0124 0.734 0.0124
1708770898.7881 0.737 0.014 0.0109 0.737 0.0109
1708770898.7957 0.739 0.014 0.0140 0.739 0.0140
1708770898.8039 0.742 0.014 0.0171 0.743 0.0171
1708770898.8119 0.746 0.014 0.0155 0.746 0.0155
1708770898.8201 0.750 0.014 0.0124 0.750 0.0124
1708770898.8279 0.752 0.015 0.0124 0.753 0.0124
1708770898.8356 0.755 0.015 0.0155 0.756 0.0155
1708770898.8438 0.758 0.015 0.0171 0.759 0.0171
1708770898.8514 0.762 0.015 0.0140 0.762 0.0140
1708770898.8600 0.765 0.015 0.0109 0.766 0.0109
1708770898.8682 0.768 0.015 0.0140 0.769 0.0140
1708770898.8754 0.771 0.015 0.0171 0.772 0.0171
1708770898.8838 0.775 0.015 0.0171 0.775 0.0171
1708770898.8920 0.778 0.015 0.0124 0.778 0.0124
1708770898.9002 0.781 0.015 0.0093 0.782 0.0093
1708770898.9077 0.784 0.015 0.0140 0.785 0.0140
1708770898.9159 0.788 0.015 0.0186 0.788 0.0186
1708770898.9241 0.791 0.015 0.0186 0.791 0.0186
1708770898.9315 0.794 0.015 0.0109 0.794 0.0109
1708770898.9397 0.798 0.015 0.0078 0.798 0.0078
1708770898.9477 0.801 0.015 0.0124 0.801 0.0124
1708770898.9554 0.804 0.015 0.0171 0.804 0.0171
1708770898.9636 0.807 0.015 0.0155 0.807 0.0155
1708770898.9718 0.810 0.015 0.0093 0.810 0.0093
1708770898.9796 0.813 0.015 0.0093 0.814 0.0093
1708770898.9878 0.817 0.015 0.0109 0.817 0.0109
1708770898.9958 0.820 0.015 0.0140 0.820 0.0140
1708770899.0039 0.823 0.015 0.0109 0.823 0.0109
1708770899.0120 0.826 0.015 0.0078 0.826 0.0078
1708770899.0192 0.829 0.016 0.0078 0.830 0.0078
1708770899.0278 0.833 0.016 0.0124 0.833 0.0124
1708770899.0362 0.835 0.016 0.0140 0.836 0.0140
1708770899.0432 0.838 0.016 0.0109 0.839 0.0109
1708770899.0521 0.842 0.016 0.0093 0.842 0.0093
1708770899.0596 0.845 0.016 0.0109 0.845 0.0109
1708770899.0678 0.848 0.016 0.0109 0.849 0.0109
1708770899.0756 0.851 0.016 0.0093 0.852 0.0093
1708770899.0842 0.855 0.016 0.0062 0.855 0.0062
1708770899.0914 0.858 0.016 0.0062 0.858 0.0062
1708770899.0997 0.861 0.016 0.0078 0.861 0.0078
1708770899.1078 0.864 0.016 0.0047 0.865 0.0047
1708770899.1155 0.867 0.016 0.0016 0.868 0.0016
1708770899.1238 0.870 0.016 0.0047 0.871 0.0047
1708770899.1318 0.873 0.016 0.0078 0.874 0.0078
1708770899.1401 0.877 0.016 0.0062 0.877 0.0062
1708770899.1472 0.880 0.016 0.0016 0.881 0.0016
1708770899.1554 0.883 0.016 0.0000 0.884 0.0000
1708770899.1636 0.886 0.016 0.0047 0.887 0.0047
1708770899.1722 0.890 0.016 0.0078 0.890 0.0078
1708770899.1800 0.893 0.016 0.0062 0.894 0.0062
1708770899.1875 0.897 0.016 0.0000 0.897 0.0000
1708770899.1953 0.899 0.016 -0.0016 0.900 -0.0016
1708770899.2035 0.902 0.016 0.0031 0.903 0.0031
1708770899.2117 0.906 0.016 0.0062 0.906 0.0062
1708770899.2193 0.909 0.016 0.0031 0.909 0.0031
1708770899.2281 0.913 0.016 0.0000 0.913 0.0000
1708770899.2353 0.915 0.016 -0.0016 0.916 -0.0016
1708770899.2434 0.919 0.016 0.0031 0.919 0.0031
1708770899.2516 0.922 0.016 0.0062 0.922 0.0062
1708770899.2596 0.925 0.016 0.0047 0.925 0.0047
1708770899.2679 0.928 0.016 -0.0016 0.928 -0.0016
1708770899.2754 0.932 0.016 -0.0016 0.932 -0.0016
1708770899.2833 0.935 0.016 0.0031 0.935 0.0031
1708770899.2921 0.937 0.016 0.0062 0.938 0.0062
1708770899.2993 0.940 0.016 0.0031 0.941 0.0031
1708770899.3073 0.944 0.016 0.0000 0.944 0.0000
1708770899.3154 0.947 0.016 0.0016 0.948 0.0016
1708770899.3239 0.950 0.016 0.0047 0.951 0.0047
1708770899.3317 0.953 0.016 0.0047 0.953 0.0047
1708770899.3398 0.956 0.016 0.0031 0.957 0.0031
1708770899.3480 0.960 0.016 0.0016 0.961 0.0016
1708770899.3561 0.964 0.016 0.0031 0.964 0.0031
1708770899.3638 0.966 0.016 0.0031 0.967 0.0031
1708770899.3714 0.969 0.016 0.0031 0.969 0.0031
1708770899.3792 0.972 0.016 0.0031 0.973 0.0031
1708770899.3880 0.976 0.016 0.0047 0.976 0.0047
1708770899.3962 0.979 0.016 0.0062 0.980 0.0062
1708770899.4032 0.983 0.016 0.0062 0.983 0.0062
1708770899.4122 0.986 0.016 0.0047 0.986 0.0047
1708770899.4196 0.988 0.016 0.0047 0.988 0.0047
1708770899.4274 0.991 0.016 0.0062 0.992 0.0062
1708770899.4362 0.995 0.016 0.0109 0.995 0.0109
1708770899.4442 0.998 0.016 0.0109 0.999 0.0109
1708770899.4514 1.002 0.016 0.0062 1.002 0.0062
1708770899.4592 1.005 0.016 0.0047 1.005 0.0047
1708770899.4675 1.008 0.016 0.0109 1.008 0.0109
1708770899.4752 1.011 0.016 0.0171 1.011 0.0171
1708770899.4837 1.014 0.017 0.0140 1.014 0.0140
1708770899.4918 1.017 0.017 0.0078 1.017 0.0078
1708770899.4995 1.020 0.017 0.0062 1.021 0.0062
1708770899.5073 1.024 0.017 0.0140 1.024 0.0140
1708770899.5156 1.027 0.017 0.0217 1.027 0.0217
1708770899.5238 1.030 0.017 0.0217 1.030 0.0217
1708770899.5320 1.033 0.017 0.0186 1.033 0.0186
1708770899.5403 1.036 0.017 0.0171 1.037 0.0171
1708770899.5478 1.040 0.017 0.0217 1.040 0.0217
1708770899.5556 1.043 0.017 0.0279 1.043 0.0279
1708770899.5638 1.046 0.017 0.0279 1.046 0.0279
1708770899.5721 1.049 0.017 0.0248 1.049 0.0248
1708770899.5794 1.052 0.017 0.0233 1.053 0.0233
1708770899.5876 1.056 0.017 0.0279 1.056 0.0279
1708770899.5958 1.059 0.017 0.0341 1.059 0.0341
1708770899.6035 1.061 0.018 0.0341 1.062 0.0341
1708770899.6117 1.065 0.018 0.0310 1.065 0.0310
1708770899.6200 1.069 0.018 0.0310 1.069 0.0310
1708770899.6285 1.072 0.018 0.0357 1.073 0.0357
1708770899.6359 1.075 0.018 0.0388 1.075 0.0388
1708770899.6442 1.078 0.018 0.0388 1.078 0.0388
1708770899.6512 1.081 0.018 0.0373 1.082 0.0373
1708770899.6595 1.085 0.018 0.0388 1.085 0.0388
1708770899.6676 1.088 0.018 0.0404 1.088 0.0404
1708770899.6758 1.090 0.019 0.0404 1.090 0.0404
1708770899.6836 1.094 0.019 0.0388 1.094 0.0388
1708770899.6918 1.097 0.019 0.0419 1.098 0.0419
1708770899.6997 1.101 0.019 0.0450 1.101 0.0450
1708770899.7079 1.104 0.019 0.0466 1.104 0.0466
1708770899.7160 1.107 0.019 0.0466 1.107 0.0466
1708770899.7237 1.110 0.019 0.0466 1.110 0.0466
1708770899.7315 1.114 0.020 0.0466 1.114 0.0466
1708770899.7397 1.116 0.020 0.0497 1.117 0.0497
1708770899.7475 1.119 0.020 0.0543 1.119 0.0543
1708770899.7557 1.122 0.020 0.0543 1.123 0.0543
1708770899.7644 1.126 0.020 0.0512 1.127 0.0512
1708770899.7722 1.129 0.020 0.0528 1.130 0.0528
1708770899.7799 1.132 0.021 0.0559 1.133 0.0559
1708770899.7882 1.135 0.021 0.0590 1.136 0.0590
1708770899.7959 1.139 0.021 0.0590 1.139 0.0590
1708770899.8040 1.142 0.021 0.0590 1.143 0.0590
1708770899.8113 1.145 0.021 0.0621 1.146 0.0621
1708770899.8197 1.148 0.021 0.0667 1.148 0.0667
1708770899.8285 1.151 0.022 0.0699 1.151 0.0699
1708770899.8357 1.155 0.022 0.0699 1.155 0.0699
1708770899.8432 1.158 0.022 0.0699 1.159 0.0699
1708770899.8515 1.162 0.022 0.0699 1.162 0.0699
1708770899.8597 1.164 0.023 0.0730 1.165 0.0730
1708770899.8674 1.167 0.023 0.0776 1.168 0.0776
1708770899.8756 1.171 0.023 0.0823 1.171 0.0823
1708770899.8834 1.174 0.023 0.0838 1.175 0.0838
1708770899.8913 1.177 0.024 0.0838 1.178 0.0838
1708770899.8996 1.180 0.024 0.0869 1.180 0.0869
1708770899.9079 1.183 0.024 0.0885 1.184 0.0885
1708770899.9156 1.187 0.025 0.0916 1.188 0.0916
1708770899.9238 1.190 0.025 0.0947 1.191 0.0947
1708770899.9316 1.193 0.025 0.0978 1.194 0.0978
1708770899.9392 1.196 0.025 0.0993 1.196 0.0993
1708770899.9477 1.199 0.026 0.1024 1.200 0.1024
1708770899.9560 1.203 0.026 0.1040 1.203 0.1040
1708770899.9637 1.206 0.026 0.1087 1.207 0.1087
1708770899.9719 1.209 0.027 0.1102 1.209 0.1102
1708770899.9800 1.211 0.027 0.1102 1.212 0.1102
1708770899.9876 1.215 0.027 0.1133 1.216 0.1133
1708770899.9958 1.219 0.028 0.1164 1.219 0.1164
1708770900.0040 1.222 0.028 0.1180 1.222 0.1180
1708770900.0117 1.224 0.029 0.1195 1.225 0.1195
1708770900.0199 1.227 0.029 0.1226 1.228 0.1226
1708770900.0276 1.231 0.029 0.1273 1.232 0.1273
1708770900.0354 1.234 0.030 0.1288 1.235 0.1288
1708770900.0438 1.237 0.030 0.1273 1.238 0.1273
