% Pose without folding and reset (log_20240224_113940.627/log_pose_abs.txt)
% 1 	Time (sec)
% 2,3 	Position x,y (m)
% 4 	heading (rad)
% 5 	Driven distance (m) - signed
% 6 	Turned angle (rad) - signed
1708771180.7438 0.000 0.000 0.0000 0.000 0.0000
1708771180.7512 0.000 0.000 0.0000 0.000 0.0000
1708771180.7585 0.000 0.000 0.0000 0.000 0.0000
1708771180.7665 0.000 0.000 0.0000 0.000 0.0000
1708771180.7745 0.000 0.000 0.0000 0.000 0.0000
1708771180.7827 0.000 0.000 0.0000 0.000 0.0000
1708771180.7914 0.000 0.000 0.0000 0.000 0.0000
1708771180.7999 0.000 0.000 0.0000 0.000 0.0000
1708771180.8069 0.000 0.000 0.0000 0.000 0.0000
1708771180.8146 0.000 0.000 0.0000 0.000 0.0000
1708771180.8230 0.000 0.000 0.0000 0.000 0.0000
1708771180.8313 0.000 0.000 0.0000 0.000 0.0000
1708771180.8391 0.000 0.000 0.0000 0.000 0.0000
1708771180.8474 0.000 0.000 0.0000 0.000 0.0000
1708771180.8554 0.000 0.000 0.0000 0.000 0.0000
1708771180.8625 0.000 0.000 0.0000 0.000 0.0000
1708771180.8707 0.000 0.000 0.0016 0.000 0.0016
1708771180.8792 0.003 0.000 0.0000 0.003 0.0000
1708771180.8871 0.005 -0.000 -0.0047 0.005 -0.0047
1708771180.8954 0.008 -0.000 -0.0031 0.008 -0.0031
1708771180.9035 0.009 -0.000 -0.0016 0.009 -0.0016
1708771180.9105 0.011 -0.000 0.0000 0.011 0.0000
1708771180.9194 0.014 -0.000 -0.0016 0.014 -0.0016
1708771180.9269 0.018 -0.000 -0.0016 0.018 -0.0016
1708771180.9345 0.021 -0.000 -0.0016 0.021 -0.0016
1708771180.9439 0.024 -0.000 -0.0016 0.024 -0.0016
1708771180.9511 0.028 -0.000 -0.0016 0.028 -0.0016
1708771180.9585 0.032 -0.000 -0.0031 0.032 -0.0031
1708771180.9672 0.036 -0.000 -0.0031 0.036 -0.0031
1708771180.9749 0.041 -0.000 -0.0016 0.041 -0.0016
1708771180.9834 0.045 -0.000 -0.0016 0.045 -0.0016
1708771180.9914 0.049 -0.000 -0.0031 0.049 -0.0031
1708771180.9995 0.054 -0.000 -0.0031 0.054 -0.0031
1708771181.0066 0.059 -0.000 -0.0016 0.059 -0.0016
1708771181.0156 0.063 -0.000 -0.0031 0.063 -0.0031
1708771181.0234 0.068 -0.000 -0.0031 0.068 -0.0031
1708771181.0312 0.074 -0.000 -0.0031 0.074 -0.0031
1708771181.0384 0.079 -0.000 -0.0062 0.079 -0.0062
1708771181.0469 0.084 -0.000 -0.0062 0.084 -0.0062
1708771181.0547 0.089 -0.000 -0.0047 0.089 -0.0047
1708771181.0631 0.094 -0.000 -0.0047 0.094 -0.0047
1708771181.0706 0.100 -0.000 -0.0062 0.100 -0.0062
1708771181.0794 0.105 -0.000 -0.0078 0.105 -0.0078
1708771181.0865 0.110 -0.000 -0.0078 0.110 -0.0078
1708771181.0948 0.115 -0.000 -0.0078 0.115 -0.0078
1708771181.1024 0.120 -0.000 -0.0109 0.120 -0.0109
1708771181.1107 0.125 -0.001 -0.0140 0.125 -0.0140
1708771181.1187 0.131 -0.001 -0.0124 0.131 -0.0124
1708771181.1266 0.136 -0.001 -0.0109 0.136 -0.0109
1708771181.1350 0.141 -0.001 -0.0109 0.141 -0.0109
1708771181.1433 0.145 -0.001 -0.0124 0.145 -0.0124
1708771181.1508 0.150 -0.001 -0.0140 0.150 -0.0140
1708771181.1587 0.155 -0.001 -0.0124 0.155 -0.0124
1708771181.1664 0.160 -0.001 -0.0124 0.160 -0.0124
1708771181.1754 0.164 -0.001 -0.0109 0.164 -0.0109
1708771181.1828 0.169 -0.001 -0.0109 0.169 -0.0109
1708771181.1909 0.174 -0.001 -0.0124 0.174 -0.0124
1708771181.1990 0.180 -0.001 -0.0124 0.180 -0.0124
1708771181.2072 0.184 -0.001 -0.0093 0.184 -0.0093
1708771181.2147 0.188 -0.001 -0.0078 0.188 -0.0078
1708771181.2226 0.193 -0.001 -0.0062 0.193 -0.0062
1708771181.2312 0.198 -0.001 -0.0062 0.198 -0.0062
1708771181.2385 0.203 -0.001 -0.0047 0.203 -0.0047
1708771181.2478 0.207 -0.001 0.0000 0.207 0.0000
1708771181.2544 0.212 -0.001 0.0016 0.212 0.0016
1708771181.2626 0.217 -0.001 0.0031 0.217 0.0031
1708771181.2716 0.221 -0.001 0.0062 0.221 0.0062
1708771181.2790 0.226 -0.001 0.0093 0.226 0.0093
1708771181.2869 0.231 -0.001 0.0109 0.231 0.0109
1708771181.2948 0.236 -0.001 0.0140 0.236 0.0140
1708771181.3036 0.241 -0.001 0.0186 0.241 0.0186
1708771181.3104 0.245 -0.001 0.0202 0.245 0.0202
1708771181.3218 0.250 -0.001 0.0233 0.250 0.0233
1708771181.3268 0.255 -0.001 0.0279 0.255 0.0279
1708771181.3354 0.259 -0.001 0.0310 0.259 0.0310
1708771181.3431 0.263 -0.001 0.0326 0.263 0.0326
1708771181.3510 0.267 -0.000 0.0310 0.267 0.0310
1708771181.3593 0.273 -0.000 0.0357 0.273 0.0357
1708771181.3671 0.278 0.000 0.0435 0.278 0.0435
1708771181.3746 0.282 0.000 0.0466 0.283 0.0466
1708771181.3829 0.287 0.000 0.0481 0.287 0.0481
1708771181.3911 0.292 0.001 0.0512 0.292 0.0512
1708771181.3990 0.297 0.001 0.0543 0.297 0.0543
1708771181.4073 0.302 0.001 0.0605 0.302 0.0605
1708771181.4152 0.306 0.001 0.0621 0.306 0.0621
1708771181.4234 0.311 0.002 0.0667 0.311 0.0667
1708771181.4307 0.316 0.002 0.0714 0.316 0.0714
1708771181.4385 0.322 0.003 0.0745 0.322 0.0745
1708771181.4500 0.326 0.003 0.0792 0.326 0.0792
1708771181.4549 0.329 0.003 0.0823 0.329 0.0823
1708771181.4630 0.334 0.004 0.0869 0.335 0.0869
1708771181.4713 0.339 0.004 0.0900 0.339 0.0900
1708771181.4794 0.344 0.004 0.0947 0.344 0.0947
1708771181.4874 0.349 0.005 0.0962 0.349 0.0962
1708771181.4946 0.354 0.005 0.0993 0.354 0.0993
1708771181.5024 0.358 0.006 0.0993 0.359 0.0993
1708771181.5114 0.362 0.006 0.1040 0.363 0.1040
1708771181.5188 0.367 0.007 0.1087 0.367 0.1087
1708771181.5270 0.373 0.007 0.1133 0.373 0.1133
1708771181.5351 0.378 0.008 0.1118 0.378 0.1118
1708771181.5433 0.382 0.008 0.1118 0.382 0.1118
1708771181.5509 0.386 0.009 0.1149 0.387 0.1149
1708771181.5587 0.391 0.009 0.1180 0.392 0.1180
1708771181.5670 0.396 0.010 0.1180 0.397 0.1180
1708771181.5750 0.401 0.011 0.1180 0.401 0.1180
1708771181.5829 0.405 0.011 0.1180 0.405 0.1180
1708771181.5912 0.410 0.012 0.1180 0.410 0.1180
1708771181.5991 0.415 0.012 0.1195 0.415 0.1195
1708771181.6069 0.420 0.013 0.1226 0.420 0.1226
1708771181.6145 0.424 0.013 0.1226 0.425 0.1226
1708771181.6232 0.429 0.014 0.1180 0.429 0.1180
1708771181.6312 0.433 0.015 0.1164 0.434 0.1164
1708771181.6384 0.439 0.015 0.1195 0.440 0.1195
1708771181.6468 0.444 0.016 0.1211 0.445 0.1211
1708771181.6553 0.448 0.016 0.1195 0.449 0.1195
1708771181.6633 0.452 0.017 0.1149 0.453 0.1149
1708771181.6706 0.457 0.017 0.1087 0.458 0.1087
1708771181.6784 0.463 0.018 0.1071 0.464 0.1071
1708771181.6874 0.467 0.018 0.1087 0.468 0.1087
1708771181.6946 0.471 0.019 0.1087 0.472 0.1087
1708771181.7028 0.476 0.019 0.1056 0.477 0.1056
1708771181.7111 0.481 0.020 0.0993 0.482 0.0993
1708771181.7185 0.486 0.020 0.0962 0.487 0.0962
1708771181.7273 0.491 0.021 0.0962 0.492 0.0962
1708771181.7346 0.495 0.021 0.0962 0.496 0.0962
1708771181.7431 0.500 0.022 0.0931 0.501 0.0931
1708771181.7504 0.505 0.022 0.0900 0.506 0.0900
1708771181.7588 0.510 0.023 0.0885 0.511 0.0885
1708771181.7671 0.514 0.023 0.0869 0.515 0.0869
1708771181.7749 0.519 0.023 0.0854 0.520 0.0854
1708771181.7833 0.524 0.024 0.0807 0.525 0.0807
1708771181.7906 0.529 0.024 0.0776 0.530 0.0776
1708771181.7990 0.533 0.025 0.0776 0.534 0.0776
1708771181.8073 0.538 0.025 0.0745 0.539 0.0745
1708771181.8144 0.543 0.025 0.0714 0.544 0.0714
1708771181.8233 0.548 0.026 0.0683 0.549 0.0683
1708771181.8305 0.553 0.026 0.0667 0.554 0.0667
1708771181.8388 0.557 0.026 0.0636 0.558 0.0636
1708771181.8473 0.562 0.027 0.0636 0.563 0.0636
1708771181.8552 0.567 0.027 0.0605 0.568 0.0605
1708771181.8625 0.572 0.027 0.0574 0.573 0.0574
1708771181.8704 0.577 0.027 0.0559 0.578 0.0559
1708771181.8787 0.581 0.028 0.0543 0.582 0.0543
1708771181.8868 0.585 0.028 0.0512 0.587 0.0512
1708771181.8946 0.591 0.028 0.0497 0.592 0.0497
1708771181.9024 0.596 0.028 0.0466 0.597 0.0466
1708771181.9108 0.600 0.029 0.0450 0.602 0.0450
1708771181.9186 0.605 0.029 0.0435 0.606 0.0435
1708771181.9269 0.610 0.029 0.0419 0.611 0.0419
1708771181.9351 0.615 0.029 0.0404 0.616 0.0404
1708771181.9430 0.619 0.029 0.0373 0.621 0.0373
1708771181.9508 0.624 0.030 0.0341 0.625 0.0341
1708771181.9591 0.629 0.030 0.0341 0.630 0.0341
1708771181.9670 0.634 0.030 0.0326 0.635 0.0326
1708771181.9752 0.639 0.030 0.0279 0.640 0.0279
1708771181.9824 0.643 0.030 0.0264 0.645 0.0264
1708771181.9914 0.648 0.030 0.0295 0.649 0.0295
1708771181.9992 0.653 0.030 0.0279 0.654 0.0279
1708771182.0066 0.658 0.031 0.0264 0.660 0.0264
1708771182.0154 0.663 0.031 0.0233 0.664 0.0233
1708771182.0228 0.667 0.031 0.0217 0.668 0.0217
1708771182.0312 0.672 0.031 0.0202 0.673 0.0202
1708771182.0390 0.677 0.031 0.0186 0.679 0.0186
1708771182.0473 0.682 0.031 0.0171 0.684 0.0171
1708771182.0552 0.687 0.031 0.0140 0.688 0.0140
1708771182.0629 0.691 0.031 0.0140 0.693 0.0140
1708771182.0786 0.701 0.031 0.0124 0.703 0.0124
1708771182.0869 0.706 0.031 0.0078 0.708 0.0078
1708771182.0945 0.711 0.031 0.0062 0.712 0.0062
1708771182.1028 0.715 0.031 0.0062 0.717 0.0062
1708771182.1105 0.720 0.032 0.0062 0.722 0.0062
1708771182.1189 0.725 0.032 0.0078 0.727 0.0078
1708771182.1273 0.730 0.032 0.0062 0.731 0.0062
1708771182.1354 0.734 0.032 0.0031 0.736 0.0031
1708771182.1427 0.740 0.032 0.0016 0.741 0.0016
1708771182.1507 0.744 0.032 0.0016 0.746 0.0016
1708771182.1594 0.749 0.032 0.0016 0.750 0.0016
1708771182.1666 0.753 0.032 0.0000 0.755 0.0000
1708771182.1749 0.759 0.032 -0.0016 0.760 -0.0016
1708771182.1828 0.764 0.032 -0.0016 0.765 -0.0016
1708771182.1906 0.768 0.032 0.0000 0.769 0.0000
1708771182.2010 0.772 0.032 -0.0016 0.774 -0.0016
1708771182.2071 0.777 0.032 -0.0047 0.779 -0.0047
1708771182.2153 0.783 0.032 -0.0078 0.784 -0.0078
1708771182.2225 0.788 0.032 -0.0093 0.789 -0.0093
1708771182.2309 0.792 0.031 -0.0093 0.793 -0.0093
1708771182.2391 0.796 0.031 -0.0062 0.797 -0.0062
1708771182.2473 0.800 0.031 -0.0078 0.802 -0.0078
1708771182.2549 0.806 0.031 -0.0093 0.808 -0.0093
1708771182.2631 0.811 0.031 -0.0124 0.813 -0.0124
1708771182.2714 0.816 0.031 -0.0124 0.817 -0.0124
1708771182.2790 0.819 0.031 -0.0093 0.821 -0.0093
1708771182.2874 0.824 0.031 -0.0078 0.826 -0.0078
1708771182.2945 0.830 0.031 -0.0093 0.831 -0.0093
1708771182.3029 0.835 0.031 -0.0109 0.836 -0.0109
1708771182.3112 0.839 0.031 -0.0124 0.840 -0.0124
1708771182.3185 0.843 0.031 -0.0124 0.845 -0.0124
1708771182.3274 0.849 0.031 -0.0140 0.850 -0.0140
1708771182.3345 0.853 0.031 -0.0140 0.855 -0.0140
1708771182.3429 0.858 0.031 -0.0140 0.860 -0.0140
1708771182.3504 0.863 0.031 -0.0140 0.864 -0.0140
1708771182.3587 0.867 0.031 -0.0155 0.869 -0.0155
1708771182.3671 0.872 0.031 -0.0171 0.874 -0.0171
1708771182.3750 0.878 0.030 -0.0186 0.879 -0.0186
1708771182.3831 0.882 0.030 -0.0186 0.884 -0.0186
1708771182.3905 0.887 0.030 -0.0171 0.888 -0.0171
1708771182.3990 0.891 0.030 -0.0171 0.893 -0.0171
1708771182.4073 0.896 0.030 -0.0217 0.898 -0.0217
1708771182.4146 0.901 0.030 -0.0233 0.903 -0.0233
1708771182.4234 0.906 0.030 -0.0202 0.908 -0.0202
1708771182.4306 0.910 0.030 -0.0186 0.912 -0.0186
1708771182.4389 0.915 0.030 -0.0217 0.916 -0.0217
1708771182.4468 0.920 0.030 -0.0248 0.921 -0.0248
1708771182.4547 0.925 0.029 -0.0248 0.927 -0.0248
1708771182.4630 0.930 0.029 -0.0233 0.931 -0.0233
1708771182.4707 0.934 0.029 -0.0233 0.936 -0.0233
1708771182.4791 0.939 0.029 -0.0248 0.940 -0.0248
1708771182.4874 0.944 0.029 -0.0279 0.946 -0.0279
1708771182.4953 0.950 0.029 -0.0279 0.951 -0.0279
1708771182.5032 0.955 0.029 -0.0264 0.956 -0.0264
1708771182.5109 0.959 0.029 -0.0248 0.960 -0.0248
1708771182.5185 0.963 0.029 -0.0295 0.965 -0.0295
1708771182.5270 0.968 0.028 -0.0295 0.970 -0.0295
1708771182.5353 0.973 0.028 -0.0279 0.975 -0.0279
1708771182.5431 0.978 0.028 -0.0264 0.980 -0.0264
1708771182.5510 0.983 0.028 -0.0279 0.984 -0.0279
1708771182.5594 0.988 0.028 -0.0295 0.989 -0.0295
1708771182.5672 0.992 0.028 -0.0279 0.994 -0.0279
1708771182.5745 0.997 0.028 -0.0279 0.999 -0.0279
1708771182.5828 1.002 0.027 -0.0295 1.004 -0.0295
1708771182.5906 1.006 0.027 -0.0310 1.008 -0.0310
1708771182.5996 1.011 0.027 -0.0279 1.013 -0.0279
1708771182.6066 1.016 0.027 -0.0264 1.018 -0.0264
1708771182.6146 1.021 0.027 -0.0295 1.023 -0.0295
1708771182.6231 1.026 0.027 -0.0279 1.027 -0.0279
1708771182.6305 1.030 0.027 -0.0248 1.031 -0.0248
1708771182.6385 1.035 0.026 -0.0217 1.037 -0.0217
1708771182.6468 1.040 0.026 -0.0233 1.042 -0.0233
1708771182.6545 1.045 0.026 -0.0233 1.046 -0.0233
1708771182.6624 1.049 0.026 -0.0186 1.051 -0.0186
1708771182.6708 1.054 0.026 -0.0140 1.056 -0.0140
1708771182.6791 1.059 0.026 -0.0155 1.061 -0.0155
1708771182.6867 1.064 0.026 -0.0155 1.066 -0.0155
1708771182.6947 1.069 0.026 -0.0124 1.070 -0.0124
1708771182.7026 1.073 0.026 -0.0078 1.075 -0.0078
1708771182.7104 1.078 0.026 -0.0031 1.080 -0.0031
1708771182.7187 1.083 0.026 0.0000 1.084 0.0000
1708771182.7271 1.088 0.026 0.0000 1.089 0.0000
1708771182.7349 1.093 0.026 0.0047 1.094 0.0047
1708771182.7432 1.097 0.026 0.0109 1.099 0.0109
1708771182.7512 1.102 0.026 0.0124 1.104 0.0124
1708771182.7592 1.107 0.026 0.0155 1.109 0.0155
1708771182.7671 1.112 0.026 0.0202 1.114 0.0202
1708771182.7750 1.117 0.026 0.0264 1.118 0.0264
1708771182.7913 1.126 0.026 0.0326 1.128 0.0326
1708771182.7993 1.131 0.027 0.0326 1.133 0.0326
1708771182.8072 1.136 0.027 0.0341 1.138 0.0341
1708771182.8145 1.141 0.027 0.0404 1.143 0.0404
1708771182.8229 1.145 0.027 0.0497 1.147 0.0497
1708771182.8307 1.150 0.027 0.0528 1.151 0.0528
1708771182.8390 1.155 0.028 0.0559 1.156 0.0559
1708771182.8473 1.160 0.028 0.0605 1.161 0.0605
1708771182.8548 1.165 0.028 0.0667 1.166 0.0667
1708771182.8633 1.169 0.029 0.0714 1.171 0.0714
1708771182.8707 1.174 0.029 0.0730 1.176 0.0730
1708771182.8784 1.179 0.029 0.0776 1.180 0.0776
1708771182.8869 1.183 0.030 0.0854 1.185 0.0854
1708771182.8952 1.188 0.030 0.0900 1.190 0.0900
1708771182.9028 1.193 0.031 0.0931 1.195 0.0931
1708771182.9124 1.199 0.031 0.0962 1.200 0.0962
1708771182.9184 1.203 0.031 0.1009 1.205 0.1009
1708771182.9275 1.207 0.032 0.1071 1.209 0.1071
1708771182.9348 1.212 0.032 0.1118 1.213 0.1118
1708771182.9431 1.217 0.033 0.1149 1.218 0.1149
1708771182.9506 1.222 0.034 0.1195 1.223 0.1195
1708771182.9589 1.226 0.034 0.1242 1.228 0.1242
1708771182.9672 1.230 0.035 0.1273 1.232 0.1273
1708771182.9751 1.235 0.035 0.1335 1.237 0.1335
1708771182.9834 1.241 0.036 0.1366 1.242 0.1366
1708771182.9906 1.245 0.037 0.1397 1.247 0.1397
1708771182.9992 1.250 0.037 0.1444 1.252 0.1444
1708771183.0074 1.254 0.038 0.1490 1.256 0.1490
1708771183.0152 1.258 0.039 0.1521 1.261 0.1521
1708771183.0231 1.264 0.039 0.1568 1.266 0.1568
1708771183.0304 1.269 0.040 0.1614 1.271 0.1614
1708771183.0389 1.273 0.041 0.1630 1.275 0.1630
1708771183.0468 1.277 0.042 0.1645 1.279 0.1645
1708771183.0544 1.282 0.042 0.1692 1.284 0.1692
1708771183.0628 1.287 0.043 0.1754 1.290 0.1754
1708771183.0706 1.292 0.044 0.1801 1.295 0.1801
1708771183.0789 1.296 0.045 0.1832 1.299 0.1832
1708771183.0865 1.301 0.046 0.1863 1.304 0.1863
1708771183.0944 1.306 0.047 0.1909 1.309 0.1909
1708771183.1033 1.311 0.048 0.1940 1.314 0.1940
1708771183.1105 1.315 0.049 0.1971 1.318 0.1971
1708771183.1184 1.320 0.050 0.2002 1.323 0.2002
1708771183.1267 1.325 0.051 0.2018 1.328 0.2018
1708771183.1350 1.329 0.051 0.2049 1.332 0.2049
1708771183.1427 1.334 0.052 0.2096 1.337 0.2096
1708771183.1507 1.339 0.054 0.2127 1.343 0.2127
1708771183.1591 1.344 0.055 0.2158 1.347 0.2158
1708771183.1670 1.348 0.056 0.2189 1.352 0.2189
1708771183.1753 1.353 0.057 0.2204 1.357 0.2204
1708771183.1825 1.358 0.058 0.2251 1.362 0.2251
1708771183.1909 1.363 0.059 0.2282 1.367 0.2282
1708771183.2006 1.367 0.060 0.2282 1.371 0.2282
1708771183.2074 1.371 0.061 0.2266 1.376 0.2266
1708771183.2153 1.376 0.062 0.2297 1.381 0.2297
1708771183.2228 1.381 0.063 0.2344 1.386 0.2344
1708771183.2311 1.385 0.064 0.2390 1.390 0.2390
1708771183.2389 1.389 0.065 0.2390 1.394 0.2390
1708771183.2471 1.394 0.066 0.2359 1.399 0.2359
1708771183.2550 1.400 0.068 0.2375 1.405 0.2375
1708771183.2629 1.404 0.069 0.2406 1.410 0.2406
1708771183.2711 1.409 0.070 0.2468 1.415 0.2468
1708771183.2793 1.413 0.071 0.2453 1.419 0.2453
1708771183.2871 1.418 0.072 0.2406 1.424 0.2406
1708771183.2953 1.423 0.074 0.2422 1.429 0.2422
1708771183.3033 1.428 0.075 0.2453 1.434 0.2453
1708771183.3111 1.433 0.076 0.2499 1.439 0.2499
1708771183.3194 1.437 0.077 0.2468 1.443 0.2468
1708771183.3265 1.442 0.078 0.2390 1.448 0.2390
1708771183.3355 1.446 0.079 0.2390 1.453 0.2390
1708771183.3426 1.450 0.080 0.2484 1.457 0.2484
1708771183.3507 1.455 0.081 0.2515 1.462 0.2515
1708771183.3585 1.460 0.083 0.2468 1.467 0.2468
1708771183.3667 1.464 0.084 0.2422 1.471 0.2422
1708771183.3748 1.469 0.085 0.2437 1.476 0.2437
1708771183.3826 1.473 0.086 0.2484 1.481 0.2484
1708771183.3909 1.478 0.087 0.2484 1.485 0.2484
1708771183.3998 1.483 0.088 0.2453 1.490 0.2453
1708771183.4066 1.488 0.090 0.2453 1.496 0.2453
1708771183.4148 1.492 0.091 0.2484 1.500 0.2484
1708771183.4231 1.497 0.092 0.2546 1.505 0.2546
1708771183.4393 1.506 0.094 0.2577 1.514 0.2577
1708771183.4467 1.511 0.096 0.2561 1.520 0.2561
1708771183.4554 1.516 0.097 0.2592 1.525 0.2592
1708771183.4625 1.520 0.098 0.2685 1.529 0.2685
1708771183.4708 1.524 0.099 0.2747 1.533 0.2747
1708771183.4787 1.529 0.101 0.2794 1.539 0.2794
1708771183.4869 1.534 0.102 0.2810 1.544 0.2810
1708771183.4953 1.539 0.103 0.2872 1.548 0.2872
1708771183.5035 1.543 0.105 0.2965 1.553 0.2965
1708771183.5108 1.548 0.106 0.3027 1.558 0.3027
1708771183.5191 1.552 0.108 0.3073 1.563 0.3073
1708771183.5269 1.557 0.109 0.3151 1.567 0.3151
1708771183.5352 1.561 0.110 0.3260 1.572 0.3260
1708771183.5425 1.565 0.112 0.3368 1.576 0.3368
1708771183.5508 1.570 0.114 0.3446 1.581 0.3446
1708771183.5590 1.574 0.115 0.3524 1.586 0.3524
1708771183.5672 1.579 0.117 0.3663 1.591 0.3663
1708771183.5751 1.583 0.119 0.3819 1.596 0.3819
1708771183.5834 1.588 0.120 0.3912 1.600 0.3912
1708771183.5906 1.592 0.122 0.4020 1.605 0.4020
1708771183.5996 1.597 0.124 0.4160 1.610 0.4160
1708771183.6069 1.601 0.126 0.4315 1.614 0.4315
1708771183.6152 1.605 0.128 0.4455 1.619 0.4455
1708771183.6231 1.610 0.130 0.4579 1.624 0.4579
1708771183.6304 1.614 0.132 0.4734 1.629 0.4734
1708771183.6387 1.618 0.135 0.4874 1.634 0.4874
1708771183.6467 1.622 0.137 0.5029 1.638 0.5029
1708771183.6545 1.626 0.139 0.5185 1.643 0.5185
1708771183.6629 1.631 0.142 0.5355 1.648 0.5355
1708771183.6713 1.635 0.144 0.5495 1.653 0.5495
1708771183.6786 1.639 0.147 0.5650 1.658 0.5650
1708771183.6866 1.643 0.149 0.5821 1.662 0.5821
1708771183.6945 1.646 0.152 0.5961 1.667 0.5961
1708771183.7034 1.650 0.154 0.6100 1.672 0.6100
1708771183.7106 1.655 0.158 0.6240 1.677 0.6240
1708771183.7185 1.659 0.161 0.6380 1.682 0.6380
1708771183.7268 1.662 0.163 0.6488 1.686 0.6488
1708771183.7350 1.666 0.166 0.6582 1.691 0.6582
1708771183.7430 1.670 0.169 0.6690 1.696 0.6690
1708771183.7508 1.674 0.172 0.6814 1.701 0.6814
1708771183.7592 1.678 0.175 0.6923 1.706 0.6923
1708771183.7670 1.681 0.178 0.7001 1.710 0.7001
1708771183.7751 1.684 0.181 0.7063 1.715 0.7063
1708771183.7834 1.689 0.185 0.7140 1.720 0.7140
1708771183.7986 1.692 0.188 0.7218 1.725 0.7218
1708771183.8012 1.696 0.191 0.7296 1.730 0.7296
1708771183.8065 1.699 0.194 0.7373 1.735 0.7373
1708771183.8152 1.702 0.196 0.7466 1.738 0.7466
1708771183.8225 1.704 0.198 0.7513 1.741 0.7513
1708771183.8309 1.706 0.201 0.7497 1.744 0.7497
1708771183.8389 1.710 0.204 0.7497 1.750 0.7497
1708771183.8473 1.714 0.208 0.7513 1.755 0.7513
1708771183.8572 1.717 0.210 0.7559 1.759 0.7559
1708771183.8627 1.720 0.213 0.7606 1.763 0.7606
1708771183.8711 1.723 0.216 0.7591 1.767 0.7591
1708771183.8787 1.726 0.219 0.7575 1.771 0.7575
1708771183.8865 1.729 0.222 0.7591 1.775 0.7591
1708771183.8950 1.732 0.225 0.7606 1.780 0.7606
1708771183.9031 1.736 0.228 0.7606 1.785 0.7606
1708771183.9109 1.739 0.231 0.7591 1.789 0.7591
1708771183.9192 1.742 0.234 0.7559 1.793 0.7559
1708771183.9266 1.745 0.238 0.7575 1.798 0.7575
1708771183.9346 1.749 0.241 0.7606 1.803 0.7606
1708771183.9431 1.752 0.244 0.7591 1.807 0.7591
1708771183.9510 1.755 0.247 0.7544 1.811 0.7544
1708771183.9588 1.758 0.250 0.7544 1.816 0.7544
1708771183.9672 1.762 0.253 0.7544 1.821 0.7544
1708771183.9762 1.765 0.256 0.7513 1.826 0.7513
1708771183.9834 1.769 0.260 0.7497 1.830 0.7497
1708771183.9907 1.772 0.263 0.7497 1.835 0.7497
1708771183.9996 1.776 0.266 0.7497 1.839 0.7497
1708771184.0065 1.778 0.268 0.7513 1.843 0.7513
