% IR distance sensor logfile log_20240304_163201.328/log_irdist.txt
% 1 	Time (sec)
% 2,3 	sensor 1, 2 (m)
% 4,5 	sensor AD value 1, 2 (filtered)
% sensor 1 type: sharp
% sensor 2 type: sharp
% sensor 1 sharp calib: 13cm: 46475, 50cm: 15183
% sensor 2 sharp calib: 13cm: 70000, 50cm: 20000
% sensor ultrasound URM09 factor (both): 0.001270
1709566321.7767 0.176 0.776 35432 13755
1709566321.8209 0.179 0.777 34890 13740
1709566321.8677 0.184 0.776 34145 13755
1709566321.9105 0.190 0.776 33072 13755
1709566321.9554 0.196 0.778 32194 13719
1709566322.0014 0.203 0.778 31318 13716
1709566322.0458 0.208 0.777 30642 13735
1709566322.0914 0.215 0.777 29785 13734
1709566322.1357 0.226 0.777 28465 13737
1709566322.1806 0.239 0.777 27189 13739
1709566322.2268 0.251 0.776 26110 13742
1709566322.2708 0.262 0.774 25197 13778
1709566322.3156 0.274 0.770 24273 13835
1709566322.3607 0.286 0.769 23443 13854
1709566322.4055 0.295 0.770 22849 13838
1709566322.4512 0.303 0.770 22324 13834
1709566322.4960 0.306 0.771 22166 13817
1709566322.5405 0.313 0.773 21750 13791
1709566322.5868 0.313 0.772 21760 13805
1709566322.6313 0.311 0.762 21841 13954
1709566322.6756 0.314 0.758 21691 14017
1709566322.7211 0.311 0.770 21840 13841
1709566322.7659 0.308 0.773 22015 13788
1709566322.8109 0.303 0.773 22336 13787
1709566322.8564 0.311 0.776 21890 13754
