% Pose without folding and reset (log_20240219_135914.736/log_pose_abs.txt)
% 1 	Time (sec)
% 2,3 	Position x,y (m)
% 4 	heading (rad)
% 5 	Driven distance (m) - signed
% 6 	Turned angle (rad) - signed
1708347555.4680 0.000 0.000 0.0000 0.000 0.0000
1708347555.4756 0.000 0.000 0.0000 0.000 0.0000
1708347555.4828 0.000 0.000 0.0000 0.000 0.0000
1708347555.4916 -0.000 0.000 -0.0016 -0.000 -0.0016
1708347555.4997 0.000 0.000 0.0000 0.000 0.0000
1708347555.5068 0.000 0.000 0.0000 0.000 0.0000
1708347555.5155 0.000 0.000 0.0000 0.000 0.0000
1708347555.5233 0.000 0.000 0.0000 0.000 0.0000
1708347555.5313 0.000 0.000 0.0000 0.000 0.0000
1708347555.5390 0.000 0.000 0.0000 0.000 0.0000
1708347555.5472 0.000 0.000 0.0000 0.000 0.0000
1708347555.5552 0.000 0.000 0.0000 0.000 0.0000
1708347555.5638 0.000 0.000 0.0000 0.000 0.0000
1708347555.5716 0.000 0.000 0.0000 0.000 0.0000
1708347555.5791 0.000 0.000 0.0000 0.000 0.0000
1708347555.5877 0.000 0.000 0.0000 0.000 0.0000
1708347555.5948 0.000 0.000 0.0000 0.000 0.0000
1708347555.6032 0.000 0.000 0.0000 0.000 0.0000
1708347555.6112 0.001 0.000 0.0016 0.001 0.0016
1708347555.6194 0.002 0.000 0.0016 0.002 0.0016
1708347555.6275 0.002 0.000 0.0000 0.002 0.0000
1708347555.6376 0.003 0.000 0.0000 0.003 0.0000
1708347555.6486 0.004 0.000 -0.0016 0.004 -0.0016
1708347555.6515 0.005 -0.000 -0.0016 0.005 -0.0016
1708347555.6609 0.006 -0.000 -0.0031 0.006 -0.0031
1708347555.6671 0.007 -0.000 -0.0016 0.007 -0.0016
1708347555.6754 0.008 -0.000 0.0000 0.008 0.0000
1708347555.6835 0.011 -0.000 0.0000 0.011 0.0000
1708347555.6912 0.014 -0.000 -0.0047 0.014 -0.0047
1708347555.7031 0.015 -0.000 -0.0047 0.015 -0.0047
1708347555.7113 0.016 -0.000 0.0016 0.016 0.0016
1708347555.7156 0.018 -0.000 0.0062 0.018 0.0062
1708347555.7237 0.021 0.000 0.0031 0.021 0.0031
1708347555.7325 0.023 -0.000 -0.0047 0.023 -0.0047
1708347555.7408 0.025 -0.000 -0.0062 0.025 -0.0062
1708347555.7482 0.027 -0.000 -0.0016 0.027 -0.0016
1708347555.7557 0.030 -0.000 0.0031 0.030 0.0031
1708347555.7653 0.032 -0.000 -0.0016 0.032 -0.0016
1708347555.7734 0.034 -0.000 -0.0062 0.034 -0.0062
1708347555.7800 0.037 -0.000 -0.0124 0.037 -0.0124
1708347555.7891 0.039 -0.000 -0.0093 0.039 -0.0093
1708347555.7957 0.041 -0.000 -0.0016 0.041 -0.0016
1708347555.8036 0.044 -0.000 -0.0016 0.044 -0.0016
1708347555.8121 0.046 -0.000 -0.0078 0.046 -0.0078
1708347555.8195 0.048 -0.000 -0.0093 0.048 -0.0093
1708347555.8280 0.051 -0.000 -0.0062 0.051 -0.0062
1708347555.8362 0.054 -0.000 -0.0031 0.054 -0.0031
1708347555.8444 0.056 -0.000 -0.0047 0.056 -0.0047
1708347555.8518 0.058 -0.000 -0.0093 0.058 -0.0093
1708347555.8623 0.061 -0.000 -0.0109 0.061 -0.0109
1708347555.8677 0.063 -0.000 -0.0047 0.063 -0.0047
1708347555.8763 0.066 -0.000 -0.0000 0.066 -0.0000
1708347555.8843 0.068 -0.000 -0.0047 0.068 -0.0047
1708347555.8917 0.070 -0.000 -0.0109 0.070 -0.0109
1708347555.8994 0.072 -0.000 -0.0093 0.072 -0.0093
1708347555.9098 0.075 -0.000 -0.0016 0.075 -0.0016
1708347555.9154 0.077 -0.000 -0.0000 0.077 -0.0000
1708347555.9238 0.080 -0.000 -0.0031 0.080 -0.0031
1708347555.9326 0.081 -0.000 -0.0062 0.081 -0.0062
1708347555.9404 0.084 -0.000 -0.0047 0.084 -0.0047
1708347555.9481 0.087 -0.000 -0.0016 0.087 -0.0016
1708347555.9558 0.090 -0.000 -0.0016 0.090 -0.0016
1708347555.9641 0.092 -0.000 -0.0031 0.092 -0.0031
1708347555.9718 0.093 -0.000 -0.0047 0.093 -0.0047
1708347555.9800 0.095 -0.000 -0.0031 0.095 -0.0031
1708347555.9883 0.098 -0.000 -0.0016 0.098 -0.0016
1708347555.9958 0.101 -0.000 -0.0031 0.101 -0.0031
1708347556.0050 0.103 -0.000 -0.0031 0.103 -0.0031
1708347556.0122 0.105 -0.000 -0.0016 0.105 -0.0016
1708347556.0218 0.107 -0.000 -0.0016 0.107 -0.0016
1708347556.0277 0.110 -0.000 -0.0016 0.110 -0.0016
1708347556.0363 0.113 -0.000 -0.0031 0.113 -0.0031
1708347556.0480 0.114 -0.000 -0.0031 0.114 -0.0031
1708347556.0526 0.116 -0.000 -0.0000 0.116 -0.0000
1708347556.0603 0.119 -0.000 0.0016 0.119 0.0016
1708347556.0680 0.121 -0.000 -0.0016 0.121 -0.0016
1708347556.0763 0.124 -0.000 -0.0047 0.124 -0.0047
1708347556.0844 0.125 -0.000 -0.0016 0.125 -0.0016
1708347556.0921 0.128 -0.000 0.0016 0.128 0.0016
1708347556.0998 0.131 -0.000 0.0016 0.131 0.0016
1708347556.1075 0.133 -0.000 -0.0016 0.133 -0.0016
1708347556.1161 0.135 -0.000 -0.0047 0.135 -0.0047
1708347556.1244 0.137 -0.000 -0.0016 0.137 -0.0016
1708347556.1318 0.140 -0.000 0.0031 0.140 0.0031
1708347556.1397 0.143 -0.000 0.0016 0.143 0.0016
1708347556.1477 0.145 -0.000 -0.0031 0.145 -0.0031
1708347556.1553 0.146 -0.000 -0.0031 0.146 -0.0031
1708347556.1635 0.149 -0.000 -0.0000 0.149 -0.0000
1708347556.1718 0.152 -0.000 0.0031 0.152 0.0031
1708347556.1794 0.154 -0.000 -0.0016 0.154 -0.0016
1708347556.1883 0.157 -0.000 -0.0031 0.157 -0.0031
1708347556.1962 0.158 -0.000 -0.0000 0.158 -0.0000
1708347556.2042 0.161 -0.000 0.0031 0.161 0.0031
1708347556.2122 0.164 -0.000 0.0016 0.164 0.0016
1708347556.2200 0.166 -0.000 -0.0031 0.166 -0.0031
1708347556.2282 0.168 -0.000 -0.0031 0.168 -0.0031
1708347556.2371 0.170 -0.000 0.0016 0.170 0.0016
1708347556.2438 0.173 -0.000 0.0047 0.173 0.0047
1708347556.2523 0.176 -0.000 0.0016 0.176 0.0016
1708347556.2602 0.178 -0.000 -0.0031 0.178 -0.0031
1708347556.2683 0.180 -0.000 -0.0016 0.180 -0.0016
1708347556.2767 0.182 -0.000 0.0016 0.182 0.0016
1708347556.2839 0.185 -0.000 0.0031 0.185 0.0031
1708347556.2929 0.188 -0.000 0.0016 0.188 0.0016
1708347556.2997 0.190 -0.000 0.0016 0.190 0.0016
1708347556.3078 0.191 -0.000 0.0016 0.191 0.0016
1708347556.3156 0.194 -0.000 0.0031 0.194 0.0031
1708347556.3240 0.197 -0.000 0.0016 0.197 0.0016
1708347556.3319 0.200 -0.000 -0.0016 0.200 -0.0016
1708347556.3397 0.202 -0.000 -0.0016 0.202 -0.0016
1708347556.3474 0.204 -0.000 0.0000 0.204 0.0000
1708347556.3554 0.206 -0.000 -0.0016 0.206 -0.0016
1708347556.3643 0.209 -0.000 -0.0016 0.209 -0.0016
1708347556.3720 0.211 -0.000 -0.0016 0.211 -0.0016
1708347556.3795 0.214 -0.000 0.0000 0.214 0.0000
1708347556.3884 0.216 -0.000 -0.0031 0.216 -0.0031
1708347556.3961 0.218 -0.000 -0.0062 0.218 -0.0062
1708347556.4040 0.221 -0.000 -0.0047 0.221 -0.0047
1708347556.4119 0.223 -0.000 -0.0000 0.223 -0.0000
1708347556.4195 0.225 -0.000 0.0016 0.225 0.0016
1708347556.4281 0.227 -0.000 -0.0000 0.227 -0.0000
1708347556.4382 0.230 -0.000 -0.0031 0.230 -0.0031
1708347556.4436 0.233 -0.000 -0.0047 0.233 -0.0047
1708347556.4515 0.236 -0.000 -0.0031 0.236 -0.0031
1708347556.4604 0.237 -0.000 -0.0016 0.237 -0.0016
1708347556.4678 0.239 -0.000 -0.0000 0.239 -0.0000
1708347556.4756 0.242 -0.000 -0.0016 0.242 -0.0016
1708347556.4836 0.245 -0.000 -0.0016 0.245 -0.0016
1708347556.4918 0.248 -0.000 -0.0016 0.248 -0.0016
1708347556.5001 0.249 -0.000 -0.0016 0.249 -0.0016
1708347556.5094 0.251 -0.000 0.0000 0.251 0.0000
1708347556.5163 0.254 -0.000 0.0016 0.254 0.0016
1708347556.5364 0.257 -0.000 0.0000 0.257 0.0000
1708347556.5432 0.259 -0.000 -0.0016 0.259 -0.0016
1708347556.5468 0.261 -0.000 -0.0016 0.261 -0.0016
1708347556.5535 0.262 -0.000 -0.0047 0.262 -0.0047
1708347556.5600 0.265 -0.000 -0.0031 0.265 -0.0031
1708347556.5652 0.267 -0.000 -0.0016 0.267 -0.0016
1708347556.5723 0.270 -0.000 -0.0000 0.270 -0.0000
1708347556.5808 0.271 -0.000 -0.0000 0.271 -0.0000
1708347556.5876 0.273 -0.000 -0.0031 0.273 -0.0031
1708347556.5954 0.275 -0.000 -0.0016 0.275 -0.0016
1708347556.6044 0.278 -0.000 -0.0000 0.278 -0.0000
1708347556.6121 0.280 -0.000 0.0016 0.280 0.0016
1708347556.6201 0.282 -0.000 -0.0016 0.282 -0.0016
1708347556.6278 0.284 -0.000 -0.0031 0.284 -0.0031
1708347556.6355 0.286 -0.000 -0.0031 0.286 -0.0031
1708347556.6473 0.289 -0.000 -0.0000 0.289 -0.0000
1708347556.6530 0.291 -0.000 0.0016 0.291 0.0016
1708347556.6596 0.293 -0.000 -0.0016 0.293 -0.0016
1708347556.6675 0.295 -0.001 -0.0031 0.295 -0.0031
1708347556.6762 0.297 -0.001 -0.0016 0.297 -0.0016
1708347556.6839 0.300 -0.001 0.0016 0.300 0.0016
1708347556.6920 0.303 -0.001 -0.0000 0.303 -0.0000
1708347556.6999 0.305 -0.001 -0.0016 0.305 -0.0016
1708347556.7075 0.307 -0.001 -0.0016 0.307 -0.0016
1708347556.7158 0.310 -0.001 -0.0000 0.310 -0.0000
1708347556.7243 0.312 -0.001 -0.0000 0.312 -0.0000
1708347556.7320 0.314 -0.001 0.0016 0.314 0.0016
1708347556.7402 0.317 -0.001 0.0016 0.317 0.0016
1708347556.7480 0.320 -0.001 0.0016 0.320 0.0016
1708347556.7558 0.322 -0.000 0.0016 0.322 0.0016
1708347556.7638 0.324 -0.000 0.0016 0.324 0.0016
1708347556.7718 0.326 -0.000 -0.0000 0.326 -0.0000
1708347556.7802 0.329 -0.000 0.0016 0.329 0.0016
1708347556.7879 0.332 -0.000 0.0016 0.332 0.0016
1708347556.7957 0.335 -0.000 0.0016 0.335 0.0016
1708347556.8034 0.336 -0.000 0.0031 0.336 0.0031
1708347556.8124 0.338 -0.000 0.0031 0.338 0.0031
1708347556.8205 0.341 -0.000 -0.0000 0.341 -0.0000
1708347556.8278 0.344 -0.000 -0.0000 0.344 -0.0000
1708347556.8356 0.347 -0.000 -0.0000 0.347 -0.0000
1708347556.8435 0.348 -0.000 0.0016 0.348 0.0016
1708347556.8523 0.350 -0.000 0.0031 0.350 0.0031
1708347556.8602 0.353 -0.000 0.0031 0.353 0.0031
1708347556.8681 0.356 -0.000 0.0031 0.356 0.0031
1708347556.8754 0.358 -0.000 0.0016 0.358 0.0016
1708347556.8843 0.360 -0.000 -0.0016 0.360 -0.0016
1708347556.8921 0.362 -0.000 -0.0062 0.362 -0.0062
1708347556.8998 0.365 -0.000 -0.0093 0.365 -0.0093
1708347556.9077 0.367 -0.000 -0.0093 0.367 -0.0093
1708347556.9159 0.369 -0.001 -0.0124 0.369 -0.0124
1708347556.9241 0.372 -0.001 -0.0202 0.372 -0.0202
1708347556.9319 0.374 -0.001 -0.0264 0.374 -0.0264
1708347556.9398 0.376 -0.001 -0.0326 0.376 -0.0326
1708347556.9474 0.379 -0.001 -0.0404 0.379 -0.0404
1708347556.9564 0.381 -0.001 -0.0512 0.381 -0.0512
1708347556.9640 0.383 -0.001 -0.0621 0.383 -0.0621
1708347556.9715 0.386 -0.001 -0.0730 0.386 -0.0730
1708347556.9804 0.388 -0.001 -0.0838 0.388 -0.0838
1708347556.9883 0.390 -0.002 -0.0962 0.390 -0.0962
1708347556.9967 0.393 -0.002 -0.1102 0.393 -0.1102
1708347557.0034 0.395 -0.002 -0.1226 0.395 -0.1226
1708347557.0133 0.397 -0.002 -0.1335 0.398 -0.1335
1708347557.0201 0.400 -0.003 -0.1475 0.400 -0.1475
1708347557.0278 0.402 -0.003 -0.1614 0.402 -0.1614
1708347557.0358 0.405 -0.003 -0.1739 0.405 -0.1739
1708347557.0436 0.407 -0.004 -0.1894 0.407 -0.1894
1708347557.0514 0.409 -0.004 -0.2033 0.409 -0.2033
1708347557.0603 0.412 -0.005 -0.2142 0.412 -0.2142
1708347557.0680 0.414 -0.005 -0.2282 0.415 -0.2282
1708347557.0756 0.417 -0.006 -0.2422 0.417 -0.2422
1708347557.0855 0.419 -0.007 -0.2592 0.419 -0.2592
1708347557.0918 0.421 -0.007 -0.2701 0.421 -0.2701
1708347557.1000 0.423 -0.008 -0.2841 0.424 -0.2841
1708347557.1079 0.426 -0.009 -0.2949 0.427 -0.2949
1708347557.1159 0.428 -0.009 -0.3042 0.429 -0.3042
1708347557.1234 0.430 -0.010 -0.3151 0.431 -0.3151
1708347557.1324 0.433 -0.011 -0.3291 0.434 -0.3291
1708347557.1401 0.435 -0.012 -0.3430 0.436 -0.3430
1708347557.1479 0.438 -0.013 -0.3539 0.439 -0.3539
1708347557.1558 0.440 -0.013 -0.3601 0.442 -0.3601
1708347557.1635 0.442 -0.014 -0.3663 0.444 -0.3663
1708347557.1715 0.444 -0.015 -0.3788 0.445 -0.3787
1708347557.1798 0.446 -0.016 -0.3896 0.448 -0.3896
1708347557.1883 0.449 -0.017 -0.3974 0.451 -0.3974
1708347557.1955 0.451 -0.018 -0.4005 0.453 -0.4005
1708347557.2036 0.453 -0.019 -0.4082 0.455 -0.4082
1708347557.2114 0.455 -0.020 -0.4129 0.458 -0.4129
1708347557.2204 0.457 -0.021 -0.4160 0.460 -0.4160
1708347557.2279 0.459 -0.021 -0.4191 0.462 -0.4191
1708347557.2356 0.461 -0.022 -0.4207 0.465 -0.4207
1708347557.2437 0.464 -0.023 -0.4222 0.467 -0.4222
1708347557.2516 0.466 -0.024 -0.4207 0.469 -0.4207
1708347557.2593 0.467 -0.025 -0.4191 0.471 -0.4191
1708347557.2683 0.470 -0.026 -0.4176 0.474 -0.4176
1708347557.2758 0.472 -0.027 -0.4145 0.476 -0.4145
1708347557.2843 0.474 -0.028 -0.4113 0.478 -0.4113
1708347557.2923 0.476 -0.029 -0.4036 0.481 -0.4036
1708347557.3002 0.478 -0.030 -0.3958 0.483 -0.3958
1708347557.3079 0.480 -0.031 -0.3896 0.486 -0.3896
1708347557.3158 0.483 -0.032 -0.3834 0.488 -0.3834
1708347557.3244 0.485 -0.032 -0.3741 0.490 -0.3741
1708347557.3318 0.487 -0.033 -0.3679 0.493 -0.3679
1708347557.3399 0.490 -0.034 -0.3632 0.496 -0.3632
1708347557.3479 0.492 -0.035 -0.3570 0.498 -0.3570
1708347557.3556 0.494 -0.036 -0.3508 0.500 -0.3508
1708347557.3635 0.496 -0.037 -0.3430 0.503 -0.3430
1708347557.3781 0.499 -0.038 -0.3353 0.505 -0.3353
1708347557.3803 0.501 -0.039 -0.3353 0.508 -0.3353
1708347557.3882 0.504 -0.039 -0.3322 0.510 -0.3322
1708347557.3962 0.504 -0.040 -0.3260 0.511 -0.3260
1708347557.4039 0.505 -0.040 -0.3198 0.512 -0.3198
1708347557.4118 0.508 -0.041 -0.3136 0.515 -0.3136
1708347557.4196 0.511 -0.042 -0.3105 0.518 -0.3105
1708347557.4280 0.513 -0.042 -0.3105 0.520 -0.3105
1708347557.4360 0.514 -0.043 -0.3058 0.521 -0.3058
1708347557.4440 0.516 -0.043 -0.2996 0.523 -0.2996
1708347557.4518 0.518 -0.044 -0.2965 0.526 -0.2965
1708347557.4598 0.521 -0.045 -0.2980 0.528 -0.2980
1708347557.4684 0.523 -0.046 -0.2996 0.531 -0.2996
1708347557.4758 0.524 -0.046 -0.2980 0.532 -0.2980
1708347557.4837 0.527 -0.047 -0.2934 0.535 -0.2934
1708347557.4918 0.529 -0.048 -0.2903 0.537 -0.2903
1708347557.4995 0.532 -0.048 -0.2903 0.540 -0.2903
1708347557.5074 0.533 -0.049 -0.2903 0.541 -0.2903
1708347557.5166 0.535 -0.049 -0.2918 0.544 -0.2918
1708347557.5240 0.538 -0.050 -0.2887 0.546 -0.2887
1708347557.5320 0.540 -0.051 -0.2856 0.549 -0.2856
1708347557.5400 0.542 -0.051 -0.2856 0.551 -0.2856
1708347557.5476 0.544 -0.052 -0.2887 0.553 -0.2887
1708347557.5555 0.547 -0.053 -0.2903 0.555 -0.2903
1708347557.5640 0.549 -0.053 -0.2856 0.558 -0.2856
1708347557.5717 0.551 -0.054 -0.2810 0.560 -0.2810
1708347557.5804 0.553 -0.055 -0.2810 0.562 -0.2810
1708347557.5883 0.556 -0.055 -0.2856 0.565 -0.2856
1708347557.5961 0.558 -0.056 -0.2903 0.567 -0.2903
1708347557.6041 0.561 -0.057 -0.2887 0.570 -0.2887
1708347557.6121 0.563 -0.057 -0.2841 0.572 -0.2841
1708347557.6198 0.565 -0.058 -0.2856 0.574 -0.2856
1708347557.6275 0.567 -0.059 -0.2903 0.577 -0.2903
1708347557.6366 0.570 -0.060 -0.2918 0.580 -0.2918
1708347557.6550 0.575 -0.061 -0.2810 0.584 -0.2810
1708347557.6598 0.577 -0.061 -0.2779 0.587 -0.2779
1708347557.6677 0.579 -0.062 -0.2794 0.589 -0.2794
1708347557.6757 0.580 -0.063 -0.2810 0.591 -0.2810
1708347557.6841 0.583 -0.063 -0.2825 0.593 -0.2825
1708347557.6914 0.586 -0.064 -0.2825 0.596 -0.2825
1708347557.7009 0.588 -0.065 -0.2825 0.599 -0.2825
1708347557.7080 0.590 -0.065 -0.2825 0.600 -0.2825
1708347557.7159 0.592 -0.066 -0.2841 0.602 -0.2841
1708347557.7235 0.594 -0.067 -0.2841 0.605 -0.2841
1708347557.7328 0.597 -0.067 -0.2841 0.607 -0.2841
1708347557.7394 0.598 -0.068 -0.2841 0.609 -0.2841
1708347557.7477 0.600 -0.068 -0.2856 0.611 -0.2856
1708347557.7560 0.603 -0.069 -0.2872 0.614 -0.2872
1708347557.7639 0.606 -0.070 -0.2856 0.617 -0.2856
1708347557.7721 0.608 -0.071 -0.2841 0.619 -0.2841
1708347557.7798 0.610 -0.071 -0.2856 0.621 -0.2856
1708347557.7875 0.612 -0.072 -0.2887 0.624 -0.2887
1708347557.7955 0.614 -0.072 -0.2903 0.626 -0.2903
1708347557.8045 0.617 -0.073 -0.2887 0.628 -0.2887
1708347557.8122 0.619 -0.074 -0.2887 0.631 -0.2887
1708347557.8198 0.621 -0.075 -0.2918 0.633 -0.2918
1708347557.8276 0.624 -0.075 -0.2934 0.636 -0.2934
1708347557.8354 0.626 -0.076 -0.2918 0.638 -0.2918
1708347557.8434 0.628 -0.076 -0.2887 0.640 -0.2887
1708347557.8524 0.630 -0.077 -0.2903 0.642 -0.2903
1708347557.8601 0.633 -0.078 -0.2903 0.645 -0.2903
1708347557.8676 0.635 -0.079 -0.2934 0.648 -0.2934
1708347557.8762 0.638 -0.079 -0.2934 0.650 -0.2934
1708347557.8838 0.639 -0.080 -0.2918 0.652 -0.2918
1708347557.8919 0.642 -0.081 -0.2887 0.654 -0.2887
1708347557.9001 0.645 -0.082 -0.2887 0.657 -0.2887
1708347557.9080 0.647 -0.082 -0.2918 0.660 -0.2918
1708347557.9163 0.649 -0.083 -0.2934 0.662 -0.2934
1708347557.9244 0.651 -0.083 -0.2918 0.664 -0.2918
1708347557.9321 0.653 -0.084 -0.2903 0.666 -0.2903
1708347557.9397 0.656 -0.085 -0.2887 0.669 -0.2887
1708347557.9480 0.658 -0.086 -0.2903 0.672 -0.2903
1708347557.9558 0.661 -0.086 -0.2934 0.674 -0.2934
1708347557.9639 0.663 -0.087 -0.2949 0.676 -0.2949
1708347557.9722 0.665 -0.088 -0.2903 0.678 -0.2903
1708347557.9797 0.667 -0.088 -0.2887 0.681 -0.2887
1708347557.9881 0.670 -0.089 -0.2903 0.684 -0.2903
1708347557.9960 0.672 -0.090 -0.2934 0.686 -0.2934
1708347558.0039 0.674 -0.090 -0.2903 0.688 -0.2903
1708347558.0116 0.676 -0.091 -0.2872 0.690 -0.2872
1708347558.0200 0.679 -0.092 -0.2903 0.693 -0.2903
1708347558.0275 0.681 -0.092 -0.2934 0.695 -0.2934
1708347558.0363 0.683 -0.093 -0.2934 0.698 -0.2934
1708347558.0438 0.686 -0.094 -0.2887 0.700 -0.2887
1708347558.0520 0.688 -0.094 -0.2887 0.703 -0.2887
1708347558.0603 0.690 -0.095 -0.2934 0.705 -0.2934
1708347558.0685 0.692 -0.096 -0.2965 0.707 -0.2965
1708347558.0760 0.695 -0.097 -0.2918 0.710 -0.2918
1708347558.0843 0.697 -0.097 -0.2887 0.713 -0.2887
1708347558.0933 0.699 -0.098 -0.2903 0.715 -0.2903
1708347558.1003 0.702 -0.099 -0.2918 0.717 -0.2918
1708347558.1138 0.705 -0.099 -0.2949 0.720 -0.2949
1708347558.1170 0.707 -0.100 -0.2918 0.723 -0.2918
1708347558.1236 0.709 -0.101 -0.2903 0.725 -0.2903
1708347558.1322 0.710 -0.101 -0.2918 0.726 -0.2918
1708347558.1399 0.712 -0.102 -0.2934 0.727 -0.2934
1708347558.1476 0.715 -0.103 -0.2949 0.731 -0.2949
1708347558.1570 0.718 -0.103 -0.2934 0.734 -0.2934
1708347558.1638 0.720 -0.104 -0.2903 0.736 -0.2903
1708347558.1718 0.721 -0.104 -0.2887 0.737 -0.2887
1708347558.1798 0.723 -0.105 -0.2934 0.739 -0.2934
1708347558.1877 0.725 -0.106 -0.2965 0.742 -0.2965
1708347558.1954 0.728 -0.107 -0.2949 0.745 -0.2949
1708347558.2035 0.730 -0.107 -0.2903 0.747 -0.2903
1708347558.2117 0.731 -0.108 -0.2887 0.748 -0.2887
1708347558.2195 0.733 -0.108 -0.2934 0.750 -0.2934
1708347558.2284 0.736 -0.109 -0.2949 0.753 -0.2949
1708347558.2361 0.738 -0.110 -0.2918 0.756 -0.2918
1708347558.2435 0.741 -0.110 -0.2903 0.758 -0.2903
1708347558.2516 0.743 -0.111 -0.2934 0.760 -0.2934
1708347558.2599 0.744 -0.111 -0.2980 0.762 -0.2980
1708347558.2683 0.747 -0.112 -0.2965 0.764 -0.2965
1708347558.2760 0.749 -0.113 -0.2918 0.767 -0.2918
1708347558.2842 0.752 -0.114 -0.2887 0.770 -0.2887
1708347558.2923 0.754 -0.114 -0.2934 0.772 -0.2934
1708347558.2994 0.756 -0.115 -0.2965 0.774 -0.2965
1708347558.3080 0.758 -0.116 -0.2949 0.776 -0.2949
1708347558.3158 0.761 -0.117 -0.2903 0.779 -0.2903
1708347558.3238 0.763 -0.117 -0.2887 0.782 -0.2887
1708347558.3320 0.766 -0.118 -0.2903 0.784 -0.2903
1708347558.3399 0.768 -0.119 -0.2934 0.786 -0.2934
1708347558.3481 0.770 -0.119 -0.2934 0.789 -0.2934
1708347558.3567 0.772 -0.120 -0.2887 0.791 -0.2887
1708347558.3641 0.775 -0.121 -0.2856 0.794 -0.2856
1708347558.3723 0.778 -0.121 -0.2887 0.796 -0.2887
1708347558.3805 0.780 -0.122 -0.2918 0.799 -0.2918
1708347558.3884 0.782 -0.123 -0.2918 0.801 -0.2918
1708347558.3957 0.784 -0.123 -0.2872 0.803 -0.2872
1708347558.4041 0.786 -0.124 -0.2872 0.806 -0.2872
1708347558.4119 0.789 -0.125 -0.2903 0.808 -0.2903
1708347558.4201 0.791 -0.126 -0.2934 0.810 -0.2934
1708347558.4280 0.794 -0.126 -0.2918 0.813 -0.2918
1708347558.4359 0.796 -0.127 -0.2887 0.816 -0.2887
1708347558.4440 0.798 -0.128 -0.2856 0.817 -0.2856
1708347558.4535 0.800 -0.128 -0.2872 0.819 -0.2872
1708347558.4597 0.802 -0.129 -0.2903 0.822 -0.2903
1708347558.4683 0.805 -0.130 -0.2934 0.825 -0.2934
1708347558.4764 0.807 -0.130 -0.2918 0.827 -0.2918
1708347558.4839 0.809 -0.131 -0.2887 0.829 -0.2887
1708347558.4916 0.811 -0.131 -0.2903 0.831 -0.2903
1708347558.4998 0.813 -0.132 -0.2903 0.834 -0.2903
1708347558.5080 0.816 -0.133 -0.2903 0.837 -0.2903
1708347558.5159 0.819 -0.134 -0.2903 0.839 -0.2903
1708347558.5245 0.820 -0.134 -0.2903 0.841 -0.2903
1708347558.5323 0.823 -0.135 -0.2903 0.843 -0.2903
1708347558.5401 0.825 -0.136 -0.2903 0.846 -0.2903
1708347558.5487 0.828 -0.137 -0.2903 0.849 -0.2903
1708347558.5554 0.830 -0.137 -0.2918 0.851 -0.2918
1708347558.5635 0.832 -0.138 -0.2918 0.853 -0.2918
1708347558.5725 0.834 -0.138 -0.2887 0.855 -0.2887
1708347558.5798 0.836 -0.139 -0.2856 0.857 -0.2856
1708347558.5878 0.839 -0.140 -0.2887 0.860 -0.2887
1708347558.5966 0.841 -0.140 -0.2918 0.863 -0.2918
