% Pose without folding and reset (log_20240224_114421.645/log_pose_abs.txt)
% 1 	Time (sec)
% 2,3 	Position x,y (m)
% 4 	heading (rad)
% 5 	Driven distance (m) - signed
% 6 	Turned angle (rad) - signed
1708771461.7604 0.000 0.000 0.0000 0.000 0.0000
1708771461.7684 0.000 0.000 0.0000 0.000 0.0000
1708771461.7763 0.000 0.000 0.0000 0.000 0.0000
1708771461.7839 0.000 0.000 0.0000 0.000 0.0000
1708771461.7914 0.000 0.000 0.0000 0.000 0.0000
1708771461.8004 0.000 0.000 0.0000 0.000 0.0000
1708771461.8073 0.000 0.000 0.0000 0.000 0.0000
1708771461.8168 0.000 0.000 0.0000 0.000 0.0000
1708771461.8232 0.000 0.000 0.0000 0.000 0.0000
1708771461.8313 0.000 0.000 0.0000 0.000 0.0000
1708771461.8393 0.000 0.000 0.0000 0.000 0.0000
1708771461.8479 0.000 0.000 0.0000 0.000 0.0000
1708771461.8558 0.000 0.000 0.0000 0.000 0.0000
1708771461.8633 0.000 0.000 0.0000 0.000 0.0000
1708771461.8712 0.000 0.000 0.0000 0.000 0.0000
1708771461.8799 0.000 0.000 0.0000 0.000 0.0000
1708771461.8879 0.000 0.000 0.0016 0.000 0.0016
1708771461.8961 0.003 0.000 0.0016 0.003 0.0016
1708771461.9038 0.006 0.000 0.0016 0.006 0.0016
1708771461.9117 0.008 0.000 0.0016 0.008 0.0016
1708771461.9206 0.010 0.000 0.0031 0.010 0.0031
1708771461.9284 0.012 0.000 0.0016 0.012 0.0016
1708771461.9366 0.015 0.000 0.0016 0.015 0.0016
1708771461.9437 0.018 0.000 0.0000 0.018 0.0000
1708771461.9527 0.022 0.000 0.0000 0.022 0.0000
1708771461.9598 0.025 0.000 0.0000 0.025 0.0000
1708771461.9678 0.028 0.000 0.0000 0.028 0.0000
1708771461.9771 0.032 0.000 0.0000 0.032 0.0000
1708771461.9843 0.036 0.000 0.0016 0.036 0.0016
1708771461.9927 0.041 0.000 0.0000 0.041 0.0000
1708771462.0008 0.045 0.000 0.0016 0.045 0.0016
1708771462.0082 0.049 0.000 0.0016 0.049 0.0016
1708771462.0164 0.054 0.000 0.0031 0.054 0.0031
1708771462.0247 0.059 0.000 0.0031 0.059 0.0031
1708771462.0321 0.064 0.000 0.0016 0.064 0.0016
1708771462.0407 0.069 0.000 0.0031 0.069 0.0031
1708771462.0477 0.074 0.000 0.0031 0.074 0.0031
1708771462.0562 0.079 0.000 0.0016 0.079 0.0016
1708771462.0647 0.084 0.000 0.0047 0.084 0.0047
1708771462.0724 0.089 0.000 0.0109 0.089 0.0109
1708771462.0835 0.095 0.000 0.0155 0.095 0.0155
1708771462.0881 0.100 0.000 0.0155 0.100 0.0155
1708771462.0959 0.105 0.000 0.0171 0.105 0.0171
1708771462.1043 0.109 0.000 0.0233 0.109 0.0233
1708771462.1127 0.113 0.001 0.0326 0.113 0.0326
1708771462.1207 0.118 0.001 0.0450 0.118 0.0450
1708771462.1282 0.124 0.001 0.0543 0.124 0.0543
1708771462.1357 0.129 0.001 0.0590 0.129 0.0590
1708771462.1447 0.134 0.002 0.0667 0.134 0.0667
1708771462.1520 0.138 0.002 0.0792 0.138 0.0792
1708771462.1603 0.143 0.002 0.0947 0.143 0.0947
1708771462.1678 0.148 0.003 0.1040 0.148 0.1040
1708771462.1761 0.153 0.003 0.1149 0.153 0.1149
1708771462.1842 0.157 0.004 0.1288 0.157 0.1288
1708771462.1928 0.162 0.005 0.1459 0.162 0.1459
1708771462.2017 0.167 0.005 0.1614 0.167 0.1614
1708771462.2100 0.172 0.006 0.1739 0.172 0.1739
1708771462.2180 0.177 0.007 0.1847 0.177 0.1847
1708771462.2244 0.182 0.008 0.1987 0.182 0.1987
1708771462.2319 0.186 0.009 0.2158 0.187 0.2158
1708771462.2399 0.190 0.010 0.2313 0.190 0.2313
1708771462.2479 0.194 0.011 0.2437 0.195 0.2437
1708771462.2557 0.200 0.012 0.2577 0.201 0.2577
1708771462.2648 0.205 0.014 0.2716 0.206 0.2716
1708771462.2719 0.209 0.015 0.2856 0.210 0.2856
1708771462.2803 0.214 0.016 0.2996 0.215 0.2996
1708771462.2881 0.219 0.018 0.3120 0.220 0.3120
1708771462.2963 0.223 0.019 0.3182 0.225 0.3182
1708771462.3046 0.227 0.021 0.3291 0.230 0.3291
1708771462.3124 0.232 0.022 0.3430 0.235 0.3430
1708771462.3202 0.237 0.024 0.3539 0.240 0.3539
1708771462.3285 0.242 0.026 0.3601 0.245 0.3601
1708771462.3363 0.246 0.028 0.3663 0.249 0.3663
1708771462.3447 0.250 0.029 0.3756 0.254 0.3756
1708771462.3520 0.254 0.031 0.3865 0.259 0.3865
1708771462.3607 0.259 0.033 0.3896 0.263 0.3896
1708771462.3686 0.264 0.035 0.3927 0.268 0.3927
1708771462.3759 0.268 0.037 0.3989 0.273 0.3989
1708771462.3837 0.272 0.038 0.4036 0.278 0.4036
1708771462.3920 0.276 0.040 0.4082 0.282 0.4082
1708771462.4004 0.281 0.042 0.4098 0.287 0.4098
1708771462.4080 0.285 0.044 0.4113 0.292 0.4113
1708771462.4170 0.289 0.046 0.4129 0.296 0.4129
1708771462.4243 0.294 0.048 0.4129 0.301 0.4129
1708771462.4321 0.298 0.050 0.4098 0.306 0.4098
1708771462.4404 0.302 0.051 0.4067 0.310 0.4067
1708771462.4477 0.306 0.053 0.4036 0.315 0.4036
1708771462.4564 0.311 0.055 0.3989 0.320 0.3989
1708771462.4647 0.315 0.057 0.3912 0.324 0.3912
1708771462.4728 0.319 0.058 0.3850 0.329 0.3850
1708771462.4807 0.324 0.060 0.3803 0.334 0.3803
1708771462.4879 0.328 0.062 0.3725 0.339 0.3725
1708771462.4960 0.333 0.064 0.3632 0.343 0.3632
1708771462.5039 0.337 0.065 0.3508 0.348 0.3508
1708771462.5121 0.341 0.067 0.3415 0.353 0.3415
1708771462.5201 0.346 0.069 0.3337 0.358 0.3337
1708771462.5280 0.351 0.070 0.3229 0.362 0.3229
1708771462.5362 0.355 0.072 0.3105 0.367 0.3105
1708771462.5444 0.360 0.073 0.2949 0.372 0.2949
1708771462.5522 0.364 0.074 0.2825 0.377 0.2825
1708771462.5605 0.369 0.076 0.2716 0.382 0.2716
1708771462.5685 0.374 0.077 0.2561 0.387 0.2561
1708771462.5764 0.379 0.078 0.2406 0.392 0.2406
1708771462.5846 0.383 0.079 0.2251 0.396 0.2251
1708771462.5928 0.388 0.080 0.2096 0.401 0.2096
1708771462.6007 0.393 0.081 0.1956 0.406 0.1956
1708771462.6079 0.398 0.082 0.1801 0.411 0.1801
1708771462.6158 0.403 0.083 0.1645 0.416 0.1645
1708771462.6247 0.407 0.084 0.1521 0.421 0.1521
1708771462.6317 0.411 0.085 0.1366 0.425 0.1366
1708771462.6401 0.417 0.085 0.1211 0.430 0.1211
1708771462.6479 0.421 0.086 0.1071 0.435 0.1071
1708771462.6562 0.426 0.086 0.0931 0.440 0.0931
1708771462.6646 0.431 0.087 0.0761 0.445 0.0761
1708771462.6720 0.436 0.087 0.0605 0.450 0.0605
1708771462.6802 0.441 0.087 0.0466 0.455 0.0466
1708771462.6885 0.445 0.087 0.0357 0.459 0.0357
1708771462.6964 0.450 0.088 0.0233 0.463 0.0233
1708771462.7043 0.455 0.088 0.0109 0.469 0.0109
1708771462.7127 0.460 0.088 -0.0047 0.474 -0.0047
1708771462.7200 0.465 0.088 -0.0186 0.478 -0.0186
1708771462.7282 0.469 0.088 -0.0264 0.483 -0.0264
1708771462.7367 0.474 0.087 -0.0326 0.488 -0.0326
1708771462.7446 0.479 0.087 -0.0450 0.493 -0.0450
1708771462.7518 0.484 0.087 -0.0605 0.498 -0.0605
1708771462.7601 0.489 0.087 -0.0730 0.503 -0.0730
1708771462.7685 0.493 0.086 -0.0792 0.506 -0.0792
1708771462.7758 0.497 0.086 -0.0869 0.511 -0.0869
1708771462.7842 0.503 0.085 -0.0962 0.516 -0.0962
1708771462.7921 0.507 0.085 -0.1056 0.521 -0.1056
1708771462.8004 0.512 0.084 -0.1118 0.526 -0.1118
1708771462.8077 0.516 0.084 -0.1180 0.530 -0.1180
1708771462.8161 0.521 0.083 -0.1257 0.535 -0.1257
1708771462.8244 0.526 0.083 -0.1304 0.540 -0.1304
1708771462.8327 0.531 0.082 -0.1350 0.545 -0.1350
1708771462.8407 0.536 0.081 -0.1397 0.550 -0.1397
1708771462.8483 0.541 0.081 -0.1428 0.555 -0.1428
1708771462.8558 0.545 0.080 -0.1444 0.560 -0.1444
1708771462.8645 0.550 0.079 -0.1459 0.564 -0.1459
1708771462.8727 0.555 0.079 -0.1490 0.569 -0.1490
1708771462.8800 0.560 0.078 -0.1475 0.574 -0.1475
1708771462.8880 0.564 0.077 -0.1459 0.579 -0.1459
1708771462.8964 0.569 0.077 -0.1459 0.583 -0.1459
1708771462.9046 0.573 0.076 -0.1428 0.588 -0.1428
1708771462.9125 0.578 0.075 -0.1382 0.593 -0.1382
1708771462.9204 0.583 0.075 -0.1335 0.598 -0.1335
1708771462.9288 0.588 0.074 -0.1319 0.602 -0.1319
1708771462.9366 0.592 0.073 -0.1257 0.607 -0.1257
1708771462.9438 0.597 0.073 -0.1195 0.612 -0.1195
1708771462.9520 0.602 0.072 -0.1118 0.617 -0.1118
1708771462.9599 0.606 0.072 -0.1071 0.621 -0.1071
1708771462.9680 0.611 0.071 -0.0978 0.626 -0.0978
1708771462.9763 0.616 0.071 -0.0916 0.630 -0.0916
1708771462.9843 0.620 0.070 -0.0838 0.635 -0.0838
1708771462.9926 0.625 0.070 -0.0745 0.640 -0.0745
1708771462.9998 0.630 0.070 -0.0621 0.645 -0.0621
1708771463.0087 0.635 0.069 -0.0528 0.650 -0.0528
1708771463.0166 0.639 0.069 -0.0435 0.654 -0.0435
1708771463.0239 0.644 0.069 -0.0326 0.659 -0.0326
1708771463.0319 0.649 0.069 -0.0217 0.664 -0.0217
1708771463.0401 0.654 0.069 -0.0109 0.669 -0.0109
1708771463.0484 0.658 0.069 0.0000 0.673 0.0000
1708771463.0563 0.663 0.069 0.0140 0.678 0.0140
1708771463.0646 0.669 0.069 0.0217 0.683 0.0217
1708771463.0725 0.674 0.069 0.0310 0.688 0.0310
1708771463.0803 0.678 0.069 0.0450 0.693 0.0450
1708771463.0887 0.682 0.069 0.0574 0.697 0.0574
1708771463.0959 0.688 0.070 0.0667 0.703 0.0667
1708771463.1039 0.693 0.070 0.0761 0.707 0.0761
1708771463.1122 0.697 0.070 0.0854 0.712 0.0854
1708771463.1201 0.702 0.071 0.0978 0.716 0.0978
1708771463.1279 0.706 0.071 0.1102 0.721 0.1102
1708771463.1362 0.712 0.072 0.1180 0.727 0.1180
1708771463.1445 0.717 0.073 0.1257 0.732 0.1257
1708771463.1525 0.721 0.073 0.1350 0.736 0.1350
1708771463.1598 0.726 0.074 0.1459 0.741 0.1459
1708771463.1678 0.731 0.075 0.1568 0.746 0.1568
1708771463.1765 0.736 0.075 0.1630 0.751 0.1630
1708771463.1838 0.740 0.076 0.1707 0.755 0.1707
1708771463.1921 0.745 0.077 0.1801 0.760 0.1801
1708771463.2000 0.750 0.078 0.1863 0.765 0.1863
1708771463.2079 0.754 0.079 0.1925 0.770 0.1925
1708771463.2157 0.759 0.080 0.2018 0.775 0.2018
1708771463.2247 0.764 0.081 0.2111 0.779 0.2111
1708771463.2320 0.768 0.082 0.2189 0.784 0.2189
1708771463.2403 0.773 0.083 0.2251 0.789 0.2251
1708771463.2481 0.778 0.084 0.2297 0.794 0.2297
1708771463.2566 0.782 0.085 0.2375 0.798 0.2375
1708771463.2637 0.787 0.086 0.2437 0.803 0.2437
1708771463.2723 0.792 0.087 0.2484 0.808 0.2484
1708771463.2807 0.797 0.089 0.2515 0.813 0.2515
1708771463.2879 0.801 0.090 0.2530 0.818 0.2530
1708771463.2959 0.806 0.091 0.2592 0.823 0.2592
1708771463.3042 0.810 0.092 0.2623 0.827 0.2623
1708771463.3124 0.815 0.093 0.2639 0.832 0.2639
1708771463.3199 0.819 0.095 0.2654 0.837 0.2654
1708771463.3283 0.824 0.096 0.2685 0.841 0.2685
1708771463.3367 0.828 0.097 0.2670 0.846 0.2670
1708771463.3447 0.833 0.098 0.2639 0.851 0.2639
1708771463.3518 0.838 0.100 0.2639 0.856 0.2639
1708771463.3601 0.842 0.101 0.2623 0.861 0.2623
1708771463.3687 0.847 0.102 0.2577 0.865 0.2577
1708771463.3760 0.852 0.103 0.2577 0.870 0.2577
1708771463.3844 0.857 0.105 0.2577 0.875 0.2577
1708771463.3922 0.861 0.106 0.2530 0.880 0.2530
1708771463.4003 0.865 0.107 0.2453 0.885 0.2453
1708771463.4087 0.870 0.108 0.2437 0.890 0.2437
1708771463.4163 0.875 0.109 0.2437 0.895 0.2437
1708771463.4246 0.880 0.110 0.2390 0.899 0.2390
1708771463.4319 0.884 0.111 0.2328 0.904 0.2328
1708771463.4408 0.889 0.112 0.2266 0.908 0.2266
1708771463.4482 0.894 0.114 0.2251 0.913 0.2251
1708771463.4567 0.899 0.115 0.2220 0.919 0.2220
1708771463.4647 0.903 0.116 0.2173 0.923 0.2173
1708771463.4719 0.908 0.117 0.2096 0.928 0.2096
1708771463.4802 0.913 0.118 0.2049 0.933 0.2049
1708771463.4882 0.917 0.119 0.2033 0.937 0.2033
1708771463.4966 0.921 0.120 0.2002 0.942 0.2002
1708771463.5039 0.926 0.121 0.1925 0.947 0.1925
1708771463.5119 0.931 0.122 0.1863 0.952 0.1863
1708771463.5200 0.936 0.122 0.1847 0.956 0.1847
1708771463.5284 0.940 0.123 0.1832 0.961 0.1832
1708771463.5361 0.945 0.124 0.1801 0.966 0.1801
1708771463.5444 0.950 0.125 0.1770 0.971 0.1770
1708771463.5527 0.955 0.126 0.1707 0.976 0.1707
1708771463.5606 0.959 0.127 0.1661 0.980 0.1661
1708771463.5685 0.964 0.127 0.1630 0.985 0.1630
1708771463.5758 0.969 0.128 0.1614 0.990 0.1614
1708771463.5848 0.973 0.129 0.1583 0.995 0.1583
1708771463.5920 0.977 0.130 0.1552 0.999 0.1552
1708771463.6004 0.982 0.130 0.1521 1.004 0.1521
1708771463.6082 0.988 0.131 0.1490 1.009 0.1490
1708771463.6162 0.992 0.132 0.1475 1.014 0.1475
1708771463.6244 0.996 0.132 0.1444 1.018 0.1444
1708771463.6323 1.001 0.133 0.1444 1.022 0.1444
1708771463.6408 1.006 0.134 0.1428 1.028 0.1428
1708771463.6487 1.011 0.135 0.1382 1.033 0.1382
1708771463.6568 1.016 0.135 0.1350 1.037 0.1350
1708771463.6640 1.020 0.136 0.1366 1.042 0.1366
1708771463.6718 1.025 0.136 0.1397 1.047 0.1397
1708771463.6798 1.030 0.137 0.1366 1.052 0.1366
1708771463.6881 1.035 0.138 0.1304 1.057 0.1304
1708771463.6965 1.039 0.138 0.1319 1.061 0.1319
1708771463.7041 1.044 0.139 0.1335 1.066 0.1335
1708771463.7122 1.049 0.140 0.1319 1.071 0.1319
1708771463.7201 1.053 0.140 0.1319 1.076 0.1319
1708771463.7280 1.059 0.141 0.1366 1.081 0.1366
1708771463.7363 1.063 0.142 0.1366 1.086 0.1366
1708771463.7446 1.068 0.142 0.1366 1.090 0.1366
1708771463.7524 1.073 0.143 0.1382 1.095 0.1382
1708771463.7607 1.078 0.144 0.1428 1.100 0.1428
1708771463.7686 1.082 0.144 0.1475 1.105 0.1475
1708771463.7766 1.087 0.145 0.1490 1.110 0.1490
1708771463.7838 1.092 0.146 0.1521 1.115 0.1521
1708771463.7922 1.097 0.146 0.1583 1.119 0.1583
1708771463.8000 1.101 0.147 0.1630 1.123 0.1630
1708771463.8083 1.106 0.148 0.1661 1.129 0.1661
1708771463.8163 1.111 0.149 0.1723 1.134 0.1723
1708771463.8242 1.116 0.150 0.1754 1.139 0.1754
1708771463.8324 1.120 0.150 0.1816 1.143 0.1816
1708771463.8398 1.125 0.151 0.1878 1.148 0.1878
1708771463.8485 1.130 0.152 0.1940 1.153 0.1940
1708771463.8558 1.134 0.153 0.2002 1.157 0.2002
1708771463.8641 1.139 0.154 0.2018 1.162 0.2018
1708771463.8727 1.144 0.155 0.2049 1.167 0.2049
1708771463.8799 1.148 0.156 0.2127 1.172 0.2127
1708771463.8883 1.153 0.157 0.2158 1.177 0.2158
1708771463.8961 1.158 0.158 0.2173 1.181 0.2173
1708771463.9044 1.163 0.159 0.2189 1.186 0.2189
1708771463.9128 1.168 0.160 0.2235 1.192 0.2235
1708771463.9203 1.173 0.162 0.2313 1.197 0.2313
1708771463.9287 1.177 0.163 0.2344 1.201 0.2344
1708771463.9358 1.181 0.164 0.2328 1.206 0.2328
1708771463.9448 1.186 0.165 0.2328 1.210 0.2328
1708771463.9520 1.191 0.166 0.2390 1.215 0.2390
1708771463.9604 1.196 0.167 0.2437 1.220 0.2437
1708771463.9679 1.200 0.168 0.2437 1.225 0.2437
1708771463.9764 1.205 0.169 0.2422 1.230 0.2422
1708771463.9847 1.209 0.170 0.2437 1.234 0.2437
1708771463.9926 1.214 0.172 0.2453 1.239 0.2453
1708771463.9999 1.219 0.173 0.2453 1.244 0.2453
1708771464.0083 1.223 0.174 0.2437 1.249 0.2437
1708771464.0158 1.227 0.175 0.2422 1.253 0.2422
1708771464.0241 1.232 0.176 0.2422 1.258 0.2422
1708771464.0324 1.237 0.177 0.2406 1.263 0.2406
1708771464.0404 1.242 0.178 0.2359 1.268 0.2359
1708771464.0488 1.246 0.180 0.2328 1.272 0.2328
1708771464.0562 1.251 0.181 0.2313 1.277 0.2313
1708771464.0642 1.256 0.182 0.2328 1.282 0.2328
1708771464.0720 1.260 0.183 0.2297 1.287 0.2297
1708771464.0804 1.265 0.184 0.2235 1.292 0.2235
1708771464.0884 1.270 0.185 0.2173 1.296 0.2173
1708771464.0967 1.275 0.186 0.2158 1.302 0.2158
1708771464.1040 1.279 0.187 0.2158 1.306 0.2158
1708771464.1118 1.284 0.188 0.2111 1.311 0.2111
1708771464.1206 1.288 0.189 0.2049 1.316 0.2049
1708771464.1279 1.293 0.190 0.2018 1.320 0.2018
1708771464.1359 1.298 0.191 0.2002 1.325 0.2002
1708771464.1442 1.302 0.192 0.1956 1.330 0.1956
1708771464.1525 1.307 0.193 0.1909 1.335 0.1909
1708771464.1604 1.312 0.194 0.1863 1.339 0.1863
1708771464.1683 1.317 0.195 0.1847 1.345 0.1847
1708771464.1767 1.322 0.196 0.1832 1.350 0.1832
1708771464.1847 1.326 0.196 0.1770 1.354 0.1770
1708771464.1918 1.331 0.197 0.1707 1.359 0.1707
1708771464.2002 1.335 0.198 0.1661 1.363 0.1661
1708771464.2091 1.340 0.199 0.1676 1.368 0.1676
1708771464.2175 1.345 0.200 0.1676 1.373 0.1676
1708771464.2237 1.350 0.200 0.1645 1.378 0.1645
1708771464.2321 1.355 0.201 0.1568 1.383 0.1568
1708771464.2404 1.359 0.202 0.1521 1.387 0.1521
1708771464.2478 1.363 0.202 0.1521 1.391 0.1521
1708771464.2564 1.368 0.203 0.1521 1.397 0.1521
1708771464.2648 1.373 0.204 0.1475 1.402 0.1475
1708771464.2721 1.378 0.205 0.1428 1.407 0.1428
1708771464.2804 1.383 0.205 0.1382 1.412 0.1382
1708771464.2881 1.387 0.206 0.1350 1.416 0.1350
1708771464.2965 1.392 0.207 0.1350 1.420 0.1350
1708771464.3045 1.397 0.207 0.1350 1.426 0.1350
1708771464.3118 1.402 0.208 0.1304 1.431 0.1304
1708771464.3198 1.407 0.209 0.1257 1.435 0.1257
1708771464.3277 1.410 0.209 0.1242 1.439 0.1242
1708771464.3362 1.415 0.210 0.1226 1.444 0.1226
1708771464.3445 1.420 0.210 0.1226 1.449 0.1226
1708771464.3524 1.426 0.211 0.1180 1.455 0.1180
1708771464.3608 1.430 0.212 0.1149 1.459 0.1149
1708771464.3688 1.434 0.212 0.1149 1.464 0.1149
1708771464.3767 1.439 0.213 0.1133 1.468 0.1133
1708771464.3840 1.444 0.213 0.1133 1.474 0.1133
1708771464.3921 1.449 0.214 0.1118 1.478 0.1118
1708771464.4000 1.453 0.214 0.1087 1.482 0.1087
1708771464.4083 1.458 0.215 0.1071 1.487 0.1071
1708771464.4162 1.463 0.215 0.1071 1.492 0.1071
1708771464.4241 1.468 0.216 0.1071 1.497 0.1071
1708771464.4323 1.472 0.216 0.1056 1.502 0.1056
1708771464.4407 1.477 0.217 0.1040 1.506 0.1040
1708771464.4486 1.482 0.217 0.1040 1.512 0.1040
1708771464.4558 1.487 0.218 0.1056 1.517 0.1056
1708771464.4642 1.491 0.218 0.1056 1.521 0.1056
1708771464.4727 1.495 0.219 0.1040 1.525 0.1040
1708771464.4798 1.500 0.219 0.1040 1.530 0.1040
1708771464.4882 1.505 0.220 0.1040 1.535 0.1040
1708771464.4960 1.510 0.220 0.1056 1.540 0.1056
1708771464.5043 1.514 0.221 0.1071 1.544 0.1071
1708771464.5126 1.519 0.221 0.1071 1.549 0.1071
1708771464.5200 1.525 0.222 0.1071 1.554 0.1071
1708771464.5283 1.529 0.222 0.1071 1.559 0.1071
1708771464.5366 1.533 0.223 0.1087 1.563 0.1087
1708771464.5445 1.538 0.223 0.1087 1.568 0.1087
1708771464.5527 1.543 0.224 0.1102 1.573 0.1102
1708771464.5601 1.548 0.224 0.1118 1.578 0.1118
1708771464.5686 1.553 0.225 0.1133 1.583 0.1133
1708771464.5758 1.557 0.225 0.1149 1.586 0.1149
1708771464.5842 1.562 0.226 0.1149 1.591 0.1149
1708771464.5920 1.567 0.226 0.1164 1.597 0.1164
1708771464.6004 1.572 0.227 0.1195 1.602 0.1195
1708771464.6078 1.577 0.228 0.1211 1.606 0.1211
1708771464.6162 1.581 0.228 0.1211 1.611 0.1211
1708771464.6245 1.586 0.229 0.1226 1.616 0.1226
1708771464.6319 1.591 0.229 0.1273 1.621 0.1273
1708771464.6398 1.597 0.230 0.1319 1.627 0.1319
1708771464.6481 1.600 0.231 0.1335 1.631 0.1335
1708771464.6563 1.605 0.231 0.1335 1.635 0.1335
1708771464.6642 1.609 0.232 0.1335 1.640 0.1335
1708771464.6722 1.615 0.233 0.1366 1.645 0.1366
1708771464.6807 1.620 0.233 0.1413 1.650 0.1413
1708771464.6887 1.624 0.234 0.1444 1.654 0.1444
1708771464.6960 1.629 0.235 0.1444 1.659 0.1444
1708771464.7039 1.634 0.235 0.1475 1.664 0.1475
1708771464.7118 1.638 0.236 0.1490 1.669 0.1490
1708771464.7208 1.642 0.237 0.1537 1.673 0.1537
1708771464.7280 1.647 0.237 0.1583 1.678 0.1583
1708771464.7360 1.652 0.238 0.1583 1.683 0.1583
1708771464.7443 1.657 0.239 0.1599 1.688 0.1599
1708771464.7525 1.661 0.240 0.1614 1.692 0.1614
1708771464.7604 1.666 0.240 0.1661 1.697 0.1661
1708771464.7684 1.671 0.241 0.1676 1.702 0.1676
1708771464.7767 1.676 0.242 0.1676 1.707 0.1676
1708771464.7846 1.680 0.243 0.1707 1.711 0.1707
1708771464.7927 1.685 0.244 0.1754 1.716 0.1754
1708771464.8001 1.690 0.245 0.1770 1.722 0.1770
1708771464.8087 1.695 0.245 0.1785 1.726 0.1785
1708771464.8172 1.699 0.246 0.1801 1.730 0.1801
1708771464.8246 1.703 0.247 0.1816 1.735 0.1816
1708771464.8327 1.709 0.248 0.1863 1.740 0.1863
1708771464.8404 1.714 0.249 0.1894 1.746 0.1894
1708771464.8478 1.718 0.250 0.1909 1.750 0.1909
1708771464.8568 1.722 0.251 0.1909 1.754 0.1909
1708771464.8640 1.727 0.251 0.1925 1.759 0.1925
1708771464.8720 1.732 0.252 0.1940 1.764 0.1940
1708771464.8799 1.737 0.253 0.1956 1.769 0.1956
1708771464.8882 1.741 0.254 0.1971 1.773 0.1971
1708771464.8958 1.746 0.255 0.1987 1.778 0.1987
1708771464.9047 1.751 0.256 0.1987 1.783 0.1987
1708771464.9119 1.756 0.257 0.1987 1.788 0.1987
1708771464.9201 1.760 0.258 0.2002 1.793 0.2002
1708771464.9280 1.765 0.259 0.2033 1.798 0.2033
1708771464.9363 1.770 0.260 0.2033 1.802 0.2033
1708771464.9438 1.774 0.261 0.2018 1.807 0.2018
1708771464.9528 1.779 0.262 0.2018 1.812 0.2018
1708771464.9600 1.784 0.263 0.2049 1.817 0.2049
1708771464.9690 1.788 0.264 0.2049 1.821 0.2049
1708771464.9758 1.793 0.265 0.2018 1.826 0.2018
1708771464.9847 1.798 0.266 0.2018 1.831 0.2018
1708771464.9920 1.802 0.267 0.2049 1.835 0.2049
1708771464.9999 1.807 0.268 0.2064 1.840 0.2064
1708771465.0082 1.812 0.269 0.2049 1.845 0.2049
1708771465.0161 1.816 0.270 0.2018 1.850 0.2018
1708771465.0243 1.821 0.271 0.2018 1.855 0.2018
1708771465.0318 1.826 0.272 0.2064 1.860 0.2064
