% Pose without folding and reset (log_20240224_113830.920/log_pose_abs.txt)
% 1 	Time (sec)
% 2,3 	Position x,y (m)
% 4 	heading (rad)
% 5 	Driven distance (m) - signed
% 6 	Turned angle (rad) - signed
1708771111.7406 0.000 0.000 0.0000 0.000 0.0000
1708771111.7481 0.000 0.000 0.0000 0.000 0.0000
1708771111.7558 -0.000 -0.000 0.0031 -0.000 0.0031
1708771111.7634 -0.000 -0.000 0.0031 -0.000 0.0031
1708771111.7716 -0.000 -0.000 0.0031 -0.000 0.0031
1708771111.7798 -0.000 -0.000 0.0031 -0.000 0.0031
1708771111.7875 -0.000 -0.000 0.0031 -0.000 0.0031
1708771111.7963 -0.000 -0.000 0.0031 -0.000 0.0031
1708771111.8033 -0.000 -0.000 0.0031 -0.000 0.0031
1708771111.8121 -0.000 -0.000 0.0031 -0.000 0.0031
1708771111.8211 -0.000 -0.000 0.0031 -0.000 0.0031
1708771111.8274 -0.000 -0.000 0.0031 -0.000 0.0031
1708771111.8357 -0.000 -0.000 0.0031 -0.000 0.0031
1708771111.8439 -0.000 -0.000 0.0031 -0.000 0.0031
1708771111.8520 -0.000 -0.000 0.0031 -0.000 0.0031
1708771111.8647 -0.000 -0.000 0.0031 -0.000 0.0031
1708771111.8674 -0.000 -0.000 0.0031 -0.000 0.0031
1708771111.8755 -0.000 -0.000 0.0016 -0.000 0.0016
1708771111.8835 0.000 0.000 0.0047 0.000 0.0047
1708771111.8918 0.001 0.000 0.0016 0.001 0.0016
1708771111.8992 0.002 0.000 -0.0000 0.002 -0.0000
1708771111.9076 0.002 0.000 0.0031 0.002 0.0031
1708771111.9152 0.003 0.000 0.0047 0.003 0.0047
1708771111.9250 0.004 0.000 0.0031 0.004 0.0031
1708771111.9324 0.005 0.000 0.0047 0.005 0.0047
1708771111.9399 0.006 0.000 0.0093 0.006 0.0093
1708771111.9488 0.007 0.000 0.0124 0.007 0.0124
1708771111.9585 0.009 0.000 0.0124 0.009 0.0124
1708771111.9665 0.010 0.000 0.0140 0.010 0.0140
1708771111.9720 0.012 0.000 0.0171 0.012 0.0171
1708771111.9833 0.013 0.000 0.0217 0.013 0.0217
1708771111.9884 0.014 0.000 0.0217 0.014 0.0217
1708771111.9966 0.015 0.000 0.0279 0.015 0.0279
1708771112.0034 0.017 0.000 0.0357 0.017 0.0357
1708771112.0117 0.019 0.000 0.0404 0.019 0.0404
1708771112.0200 0.020 0.000 0.0435 0.020 0.0435
1708771112.0276 0.022 0.000 0.0466 0.022 0.0466
1708771112.0361 0.024 0.001 0.0543 0.024 0.0543
1708771112.0434 0.025 0.001 0.0667 0.025 0.0667
1708771112.0519 0.027 0.001 0.0699 0.027 0.0699
1708771112.0602 0.028 0.001 0.0699 0.028 0.0699
1708771112.0674 0.030 0.001 0.0714 0.030 0.0714
1708771112.0761 0.032 0.001 0.0792 0.032 0.0792
1708771112.0843 0.033 0.001 0.0885 0.033 0.0885
1708771112.0916 0.035 0.001 0.0931 0.035 0.0931
1708771112.1001 0.036 0.001 0.0947 0.036 0.0947
1708771112.1083 0.038 0.002 0.0993 0.038 0.0993
1708771112.1154 0.040 0.002 0.1071 0.040 0.1071
1708771112.1236 0.041 0.002 0.1164 0.041 0.1164
1708771112.1396 0.044 0.002 0.1211 0.044 0.1211
1708771112.1479 0.046 0.003 0.1257 0.046 0.1257
1708771112.1558 0.048 0.003 0.1304 0.048 0.1304
1708771112.1641 0.049 0.003 0.1397 0.049 0.1397
1708771112.1720 0.050 0.003 0.1459 0.051 0.1459
1708771112.1803 0.052 0.003 0.1506 0.052 0.1506
1708771112.1876 0.054 0.004 0.1537 0.055 0.1537
1708771112.1958 0.056 0.004 0.1568 0.056 0.1568
1708771112.2040 0.057 0.004 0.1599 0.058 0.1599
1708771112.2171 0.058 0.004 0.1645 0.058 0.1645
1708771112.2199 0.060 0.005 0.1707 0.060 0.1707
1708771112.2274 0.062 0.005 0.1785 0.063 0.1785
1708771112.2360 0.064 0.005 0.1801 0.064 0.1801
1708771112.2442 0.064 0.005 0.1816 0.065 0.1816
1708771112.2518 0.065 0.006 0.1894 0.066 0.1894
1708771112.2602 0.067 0.006 0.1956 0.068 0.1956
1708771112.2682 0.069 0.006 0.1956 0.069 0.1956
1708771112.2755 0.070 0.007 0.1940 0.071 0.1940
1708771112.2841 0.071 0.007 0.1971 0.072 0.1971
1708771112.2915 0.072 0.007 0.2064 0.073 0.2064
1708771112.2995 0.074 0.007 0.2111 0.074 0.2111
1708771112.3079 0.075 0.008 0.2111 0.076 0.2111
1708771112.3159 0.077 0.008 0.2096 0.078 0.2096
1708771112.3242 0.078 0.008 0.2127 0.079 0.2127
1708771112.3315 0.079 0.009 0.2204 0.080 0.2204
1708771112.3404 0.081 0.009 0.2251 0.081 0.2251
1708771112.3474 0.082 0.009 0.2251 0.083 0.2251
1708771112.3557 0.084 0.010 0.2266 0.084 0.2266
1708771112.3637 0.085 0.010 0.2328 0.086 0.2328
1708771112.3716 0.086 0.010 0.2390 0.087 0.2390
1708771112.3802 0.087 0.010 0.2437 0.088 0.2437
1708771112.3881 0.089 0.011 0.2468 0.090 0.2468
1708771112.3960 0.091 0.011 0.2468 0.092 0.2468
1708771112.4035 0.092 0.012 0.2515 0.093 0.2515
1708771112.4115 0.093 0.012 0.2577 0.094 0.2577
1708771112.4200 0.095 0.012 0.2639 0.096 0.2639
1708771112.4275 0.097 0.013 0.2670 0.098 0.2670
1708771112.4363 0.098 0.013 0.2670 0.100 0.2670
1708771112.4436 0.100 0.014 0.2685 0.101 0.2685
1708771112.4518 0.101 0.014 0.2779 0.102 0.2779
1708771112.4601 0.103 0.014 0.2872 0.104 0.2872
1708771112.4684 0.104 0.015 0.2887 0.106 0.2887
1708771112.4759 0.106 0.015 0.2856 0.108 0.2856
1708771112.4839 0.108 0.016 0.2872 0.109 0.2872
1708771112.4922 0.109 0.016 0.2965 0.111 0.2965
1708771112.4996 0.110 0.017 0.3058 0.112 0.3058
1708771112.5077 0.112 0.017 0.3073 0.114 0.3073
1708771112.5166 0.113 0.018 0.3042 0.115 0.3042
1708771112.5238 0.115 0.018 0.3089 0.117 0.3089
1708771112.5318 0.116 0.019 0.3167 0.118 0.3167
1708771112.5401 0.118 0.019 0.3260 0.120 0.3260
1708771112.5481 0.119 0.020 0.3275 0.122 0.3275
1708771112.5564 0.121 0.020 0.3275 0.123 0.3275
1708771112.5637 0.122 0.021 0.3306 0.125 0.3306
1708771112.5719 0.124 0.021 0.3399 0.126 0.3399
1708771112.5799 0.125 0.022 0.3462 0.128 0.3462
1708771112.5881 0.127 0.022 0.3477 0.129 0.3477
1708771112.5955 0.128 0.023 0.3477 0.131 0.3477
1708771112.6041 0.130 0.023 0.3555 0.133 0.3555
1708771112.6124 0.131 0.024 0.3648 0.134 0.3648
1708771112.6197 0.133 0.025 0.3679 0.136 0.3679
1708771112.6277 0.134 0.025 0.3679 0.137 0.3679
1708771112.6360 0.136 0.026 0.3725 0.139 0.3725
1708771112.6434 0.137 0.026 0.3803 0.140 0.3803
1708771112.6524 0.139 0.027 0.3896 0.142 0.3896
1708771112.6596 0.140 0.027 0.3912 0.144 0.3912
1708771112.6684 0.142 0.028 0.3896 0.145 0.3896
1708771112.6758 0.143 0.029 0.3958 0.147 0.3958
1708771112.6835 0.144 0.029 0.4082 0.148 0.4082
1708771112.6922 0.146 0.030 0.4145 0.150 0.4145
1708771112.7004 0.147 0.030 0.4160 0.151 0.4160
1708771112.7078 0.149 0.031 0.4160 0.153 0.4160
1708771112.7162 0.151 0.032 0.4207 0.155 0.4207
1708771112.7242 0.152 0.033 0.4300 0.157 0.4300
1708771112.7322 0.153 0.033 0.4377 0.158 0.4377
1708771112.7396 0.154 0.034 0.4377 0.159 0.4377
1708771112.7474 0.156 0.035 0.4408 0.161 0.4408
1708771112.7559 0.158 0.035 0.4470 0.163 0.4470
1708771112.7643 0.159 0.036 0.4533 0.165 0.4533
1708771112.7722 0.161 0.037 0.4610 0.166 0.4610
1708771112.7799 0.162 0.037 0.4641 0.168 0.4641
1708771112.7884 0.164 0.038 0.4688 0.170 0.4688
1708771112.7963 0.165 0.039 0.4734 0.171 0.4734
1708771112.8043 0.166 0.040 0.4796 0.173 0.4796
1708771112.8120 0.167 0.040 0.4828 0.174 0.4828
1708771112.8198 0.169 0.041 0.4843 0.176 0.4843
1708771112.8282 0.171 0.042 0.4890 0.178 0.4890
1708771112.8354 0.172 0.043 0.4936 0.180 0.4936
1708771112.8444 0.173 0.043 0.5014 0.180 0.5014
1708771112.8514 0.174 0.044 0.5045 0.182 0.5045
1708771112.8597 0.176 0.045 0.5076 0.184 0.5076
1708771112.8676 0.178 0.046 0.5091 0.186 0.5091
1708771112.8760 0.179 0.047 0.5122 0.187 0.5122
1708771112.8842 0.180 0.047 0.5185 0.189 0.5185
1708771112.8914 0.182 0.048 0.5231 0.190 0.5231
1708771112.9004 0.184 0.049 0.5247 0.192 0.5247
1708771112.9081 0.185 0.050 0.5293 0.194 0.5293
1708771112.9160 0.186 0.050 0.5324 0.195 0.5324
1708771112.9243 0.187 0.051 0.5386 0.196 0.5386
1708771112.9314 0.189 0.052 0.5433 0.198 0.5433
1708771112.9394 0.190 0.053 0.5448 0.200 0.5448
1708771112.9478 0.191 0.054 0.5448 0.201 0.5448
1708771112.9562 0.192 0.054 0.5511 0.202 0.5511
1708771112.9642 0.194 0.055 0.5573 0.204 0.5573
1708771112.9723 0.196 0.056 0.5604 0.207 0.5604
1708771112.9797 0.197 0.057 0.5619 0.208 0.5619
1708771112.9877 0.198 0.058 0.5650 0.209 0.5650
1708771112.9959 0.199 0.058 0.5697 0.210 0.5697
1708771113.0040 0.200 0.059 0.5728 0.212 0.5728
1708771113.0123 0.202 0.061 0.5743 0.214 0.5743
1708771113.0194 0.204 0.062 0.5759 0.216 0.5759
1708771113.0279 0.205 0.062 0.5805 0.217 0.5805
1708771113.0361 0.206 0.063 0.5852 0.219 0.5852
1708771113.0444 0.207 0.064 0.5899 0.220 0.5899
1708771113.0514 0.209 0.065 0.5914 0.222 0.5914
1708771113.0604 0.210 0.066 0.5930 0.224 0.5930
1708771113.0676 0.211 0.067 0.5961 0.225 0.5961
1708771113.0761 0.212 0.067 0.6023 0.226 0.6023
1708771113.0844 0.214 0.068 0.6085 0.228 0.6085
1708771113.0916 0.216 0.070 0.6100 0.230 0.6100
1708771113.0997 0.217 0.070 0.6116 0.232 0.6116
1708771113.1075 0.218 0.071 0.6147 0.233 0.6147
1708771113.1159 0.219 0.072 0.6225 0.234 0.6225
1708771113.1242 0.220 0.073 0.6302 0.236 0.6302
1708771113.1322 0.222 0.074 0.6333 0.238 0.6333
1708771113.1394 0.224 0.075 0.6380 0.240 0.6380
1708771113.1475 0.224 0.076 0.6395 0.241 0.6395
1708771113.1556 0.225 0.077 0.6457 0.242 0.6457
1708771113.1640 0.227 0.078 0.6535 0.244 0.6535
1708771113.1715 0.229 0.079 0.6597 0.246 0.6597
1708771113.1795 0.230 0.080 0.6644 0.248 0.6644
1708771113.1878 0.231 0.081 0.6690 0.249 0.6690
1708771113.1961 0.232 0.082 0.6737 0.250 0.6737
1708771113.2036 0.233 0.083 0.6830 0.252 0.6830
1708771113.2122 0.235 0.084 0.6876 0.254 0.6876
1708771113.2196 0.236 0.085 0.6908 0.256 0.6908
1708771113.2275 0.237 0.086 0.6970 0.257 0.6970
1708771113.2356 0.238 0.087 0.7078 0.259 0.7078
1708771113.2438 0.239 0.088 0.7140 0.260 0.7140
1708771113.2524 0.240 0.089 0.7171 0.262 0.7171
1708771113.2598 0.242 0.090 0.7218 0.263 0.7218
1708771113.2682 0.243 0.091 0.7327 0.265 0.7327
1708771113.2762 0.244 0.092 0.7404 0.266 0.7404
1708771113.2844 0.245 0.093 0.7451 0.268 0.7451
1708771113.2920 0.247 0.095 0.7497 0.270 0.7497
1708771113.3001 0.248 0.096 0.7575 0.272 0.7575
1708771113.3074 0.249 0.097 0.7637 0.273 0.7637
1708771113.3160 0.250 0.097 0.7699 0.274 0.7699
1708771113.3236 0.251 0.098 0.7777 0.276 0.7777
1708771113.3319 0.252 0.100 0.7839 0.278 0.7839
1708771113.3402 0.254 0.101 0.7917 0.280 0.7917
1708771113.3478 0.254 0.102 0.7994 0.281 0.7994
1708771113.3562 0.255 0.103 0.8025 0.282 0.8025
1708771113.3635 0.257 0.104 0.8056 0.284 0.8056
1708771113.3715 0.258 0.106 0.8118 0.286 0.8118
1708771113.3798 0.259 0.107 0.8211 0.288 0.8211
1708771113.3881 0.260 0.108 0.8274 0.289 0.8274
1708771113.3960 0.261 0.109 0.8305 0.291 0.8305
1708771113.4040 0.262 0.110 0.8367 0.293 0.8367
1708771113.4123 0.264 0.112 0.8460 0.294 0.8460
1708771113.4201 0.264 0.113 0.8537 0.295 0.8537
1708771113.4278 0.265 0.114 0.8568 0.297 0.8568
1708771113.4362 0.266 0.115 0.8600 0.299 0.8599
1708771113.4435 0.268 0.117 0.8646 0.301 0.8646
1708771113.4517 0.269 0.118 0.8708 0.303 0.8708
1708771113.4601 0.270 0.119 0.8755 0.304 0.8755
1708771113.4679 0.270 0.120 0.8786 0.305 0.8786
1708771113.4762 0.272 0.122 0.8817 0.307 0.8817
1708771113.4836 0.273 0.123 0.8863 0.309 0.8863
1708771113.4916 0.274 0.124 0.8925 0.311 0.8925
1708771113.4996 0.275 0.125 0.9003 0.312 0.9003
1708771113.5080 0.275 0.126 0.9019 0.313 0.9019
1708771113.5159 0.277 0.128 0.9050 0.315 0.9050
1708771113.5242 0.278 0.129 0.9065 0.317 0.9065
1708771113.5315 0.279 0.130 0.9112 0.318 0.9112
1708771113.5395 0.279 0.131 0.9174 0.319 0.9174
1708771113.5474 0.280 0.132 0.9189 0.321 0.9189
1708771113.5557 0.281 0.134 0.9205 0.323 0.9205
1708771113.5641 0.283 0.135 0.9267 0.325 0.9267
1708771113.5723 0.283 0.137 0.9329 0.326 0.9329
1708771113.5797 0.284 0.138 0.9345 0.327 0.9345
1708771113.5876 0.285 0.139 0.9345 0.329 0.9345
1708771113.5959 0.286 0.140 0.9391 0.331 0.9391
1708771113.6038 0.287 0.141 0.9484 0.332 0.9484
1708771113.6118 0.288 0.142 0.9515 0.333 0.9515
1708771113.6201 0.289 0.144 0.9515 0.335 0.9515
1708771113.6274 0.290 0.145 0.9546 0.337 0.9546
1708771113.6364 0.291 0.147 0.9577 0.339 0.9577
1708771113.6437 0.291 0.148 0.9624 0.340 0.9624
1708771113.6515 0.292 0.149 0.9686 0.341 0.9686
1708771113.6594 0.293 0.150 0.9717 0.343 0.9717
1708771113.6682 0.295 0.152 0.9733 0.345 0.9733
1708771113.6755 0.295 0.153 0.9748 0.347 0.9748
1708771113.6835 0.296 0.154 0.9795 0.348 0.9795
1708771113.6922 0.297 0.156 0.9826 0.349 0.9826
1708771113.7003 0.298 0.158 0.9857 0.352 0.9857
1708771113.7082 0.299 0.159 0.9903 0.353 0.9903
1708771113.7155 0.300 0.160 0.9934 0.355 0.9934
1708771113.7240 0.301 0.161 0.9934 0.356 0.9934
1708771113.7316 0.301 0.162 0.9934 0.358 0.9934
1708771113.7398 0.302 0.164 0.9950 0.360 0.9950
1708771113.7479 0.303 0.166 1.0028 0.361 1.0028
1708771113.7559 0.304 0.167 1.0074 0.363 1.0074
1708771113.7635 0.305 0.168 1.0074 0.364 1.0074
1708771113.7719 0.306 0.169 1.0043 0.366 1.0043
1708771113.7808 0.307 0.171 1.0059 0.367 1.0059
1708771113.7878 0.308 0.172 1.0136 0.369 1.0136
1708771113.7964 0.308 0.174 1.0183 0.371 1.0183
1708771113.8039 0.309 0.175 1.0167 0.372 1.0167
1708771113.8123 0.310 0.176 1.0136 0.374 1.0136
1708771113.8201 0.311 0.177 1.0183 0.375 1.0183
1708771113.8280 0.312 0.179 1.0260 0.377 1.0260
1708771113.8354 0.312 0.180 1.0291 0.379 1.0291
1708771113.8444 0.313 0.182 1.0276 0.380 1.0276
1708771113.8520 0.314 0.183 1.0276 0.382 1.0276
1708771113.8604 0.315 0.184 1.0323 0.383 1.0323
1708771113.8678 0.316 0.186 1.0416 0.385 1.0416
1708771113.8761 0.316 0.187 1.0447 0.386 1.0447
1708771113.8834 0.317 0.188 1.0447 0.388 1.0447
1708771113.8920 0.318 0.189 1.0462 0.389 1.0462
1708771113.8997 0.319 0.191 1.0540 0.391 1.0540
1708771113.9082 0.320 0.192 1.0633 0.392 1.0633
1708771113.9155 0.320 0.193 1.0648 0.394 1.0648
1708771113.9236 0.321 0.195 1.0648 0.396 1.0648
1708771113.9320 0.322 0.197 1.0695 0.398 1.0695
1708771113.9399 0.323 0.198 1.0757 0.400 1.0757
1708771113.9481 0.324 0.200 1.0804 0.401 1.0804
1708771113.9565 0.324 0.201 1.0850 0.403 1.0850
1708771113.9636 0.325 0.203 1.0881 0.405 1.0881
1708771113.9717 0.326 0.204 1.0943 0.406 1.0943
1708771113.9804 0.327 0.205 1.1021 0.407 1.1021
1708771113.9879 0.327 0.207 1.1068 0.409 1.1068
1708771113.9960 0.328 0.209 1.1099 0.411 1.1099
1708771114.0041 0.329 0.210 1.1145 0.413 1.1145
1708771114.0118 0.330 0.211 1.1192 0.414 1.1192
1708771114.0198 0.330 0.213 1.1254 0.415 1.1254
1708771114.0282 0.331 0.214 1.1300 0.418 1.1300
1708771114.0358 0.332 0.216 1.1331 0.419 1.1331
1708771114.0440 0.332 0.217 1.1347 0.421 1.1347
1708771114.0519 0.333 0.218 1.1409 0.422 1.1409
1708771114.0603 0.334 0.220 1.1471 0.423 1.1471
1708771114.0684 0.334 0.222 1.1518 0.425 1.1518
1708771114.0758 0.335 0.223 1.1549 0.427 1.1549
1708771114.0839 0.336 0.225 1.1564 0.429 1.1564
1708771114.0915 0.336 0.226 1.1611 0.430 1.1611
1708771114.1004 0.337 0.227 1.1673 0.431 1.1673
1708771114.1080 0.337 0.229 1.1735 0.433 1.1735
1708771114.1163 0.338 0.231 1.1735 0.435 1.1735
1708771114.1237 0.339 0.232 1.1751 0.437 1.1751
1708771114.1321 0.339 0.233 1.1782 0.438 1.1782
1708771114.1401 0.340 0.234 1.1844 0.439 1.1844
1708771114.1481 0.340 0.236 1.1875 0.441 1.1875
1708771114.1554 0.341 0.238 1.1906 0.443 1.1906
1708771114.1634 0.342 0.239 1.1906 0.445 1.1906
1708771114.1723 0.342 0.240 1.1952 0.445 1.1952
1708771114.1799 0.343 0.241 1.2014 0.447 1.2014
1708771114.1880 0.343 0.243 1.2061 0.449 1.2061
1708771114.1955 0.344 0.245 1.2061 0.451 1.2061
1708771114.2038 0.344 0.246 1.2061 0.452 1.2061
1708771114.2124 0.345 0.247 1.2092 0.453 1.2092
1708771114.2199 0.345 0.249 1.2170 0.455 1.2170
1708771114.2275 0.346 0.251 1.2201 0.457 1.2201
1708771114.2364 0.347 0.253 1.2185 0.459 1.2185
1708771114.2442 0.347 0.254 1.2201 0.460 1.2201
1708771114.2516 0.348 0.255 1.2294 0.461 1.2294
1708771114.2599 0.348 0.256 1.2356 0.463 1.2356
1708771114.2674 0.349 0.258 1.2356 0.465 1.2356
1708771114.2761 0.349 0.260 1.2325 0.467 1.2325
1708771114.2843 0.350 0.261 1.2356 0.468 1.2356
1708771114.2918 0.350 0.262 1.2418 0.469 1.2418
1708771114.2995 0.351 0.264 1.2496 0.471 1.2496
1708771114.3078 0.351 0.266 1.2527 0.473 1.2527
1708771114.3163 0.352 0.267 1.2527 0.474 1.2527
1708771114.3238 0.352 0.268 1.2573 0.476 1.2573
1708771114.3321 0.353 0.270 1.2666 0.477 1.2666
1708771114.3401 0.353 0.272 1.2713 0.479 1.2713
1708771114.3478 0.354 0.273 1.2729 0.481 1.2729
1708771114.3559 0.354 0.275 1.2791 0.482 1.2791
1708771114.3639 0.355 0.276 1.2868 0.484 1.2868
1708771114.3725 0.355 0.278 1.2915 0.485 1.2915
1708771114.3796 0.356 0.279 1.2946 0.487 1.2946
1708771114.3882 0.356 0.281 1.2992 0.489 1.2992
1708771114.3956 0.357 0.283 1.3054 0.491 1.3054
1708771114.4045 0.357 0.283 1.3117 0.491 1.3117
1708771114.4118 0.357 0.285 1.3210 0.493 1.3210
1708771114.4195 0.358 0.287 1.3287 0.495 1.3287
1708771114.4277 0.358 0.289 1.3318 0.497 1.3318
1708771114.4363 0.358 0.290 1.3380 0.498 1.3380
1708771114.4444 0.359 0.291 1.3458 0.499 1.3458
1708771114.4520 0.359 0.293 1.3536 0.501 1.3536
1708771114.4594 0.360 0.295 1.3613 0.503 1.3613
1708771114.4674 0.360 0.297 1.3660 0.505 1.3660
1708771114.4762 0.360 0.297 1.3737 0.506 1.3737
1708771114.4837 0.360 0.299 1.3831 0.508 1.3831
1708771114.4924 0.361 0.301 1.3939 0.510 1.3939
1708771114.4999 0.361 0.303 1.3986 0.511 1.3986
1708771114.5082 0.361 0.304 1.4048 0.512 1.4048
1708771114.5156 0.361 0.306 1.4141 0.514 1.4141
1708771114.5237 0.362 0.307 1.4234 0.516 1.4234
1708771114.5323 0.362 0.309 1.4281 0.518 1.4281
1708771114.5399 0.362 0.310 1.4343 0.519 1.4343
1708771114.5484 0.362 0.312 1.4452 0.520 1.4452
1708771114.5558 0.363 0.313 1.4545 0.522 1.4545
1708771114.5643 0.363 0.315 1.4607 0.524 1.4607
1708771114.5714 0.363 0.317 1.4622 0.525 1.4622
1708771114.5799 0.363 0.319 1.4700 0.527 1.4700
1708771114.5882 0.363 0.320 1.4824 0.529 1.4824
1708771114.5962 0.363 0.322 1.4948 0.530 1.4948
1708771114.6036 0.363 0.323 1.5010 0.532 1.5010
1708771114.6187 0.364 0.325 1.5057 0.533 1.5057
1708771114.6216 0.364 0.326 1.5088 0.535 1.5088
1708771114.6282 0.364 0.329 1.5166 0.537 1.5166
1708771114.6356 0.364 0.329 1.5259 0.537 1.5259
1708771114.6441 0.364 0.329 1.5305 0.538 1.5305
1708771114.6524 0.364 0.331 1.5367 0.540 1.5367
1708771114.6599 0.364 0.334 1.5461 0.542 1.5460
1708771114.6681 0.364 0.336 1.5554 0.544 1.5554
1708771114.6762 0.364 0.337 1.5616 0.545 1.5616
1708771114.6836 0.364 0.337 1.5647 0.546 1.5647
1708771114.6920 0.364 0.339 1.5755 0.547 1.5755
1708771114.7003 0.364 0.341 1.5880 0.549 1.5880
1708771114.7078 0.364 0.342 1.5973 0.551 1.5973
1708771114.7160 0.364 0.343 1.6035 0.552 1.6035
1708771114.7234 0.364 0.345 1.6081 0.553 1.6081
1708771114.7320 0.364 0.346 1.6175 0.554 1.6175
1708771114.7402 0.364 0.348 1.6252 0.556 1.6252
1708771114.7475 0.364 0.350 1.6361 0.558 1.6361
1708771114.7561 0.364 0.351 1.6392 0.560 1.6392
1708771114.7643 0.363 0.352 1.6423 0.561 1.6423
1708771114.7716 0.363 0.353 1.6532 0.561 1.6532
1708771114.7803 0.363 0.355 1.6656 0.563 1.6656
1708771114.7885 0.363 0.357 1.6718 0.566 1.6718
1708771114.7960 0.363 0.359 1.6718 0.567 1.6718
1708771114.8043 0.363 0.360 1.6764 0.569 1.6764
1708771114.8124 0.363 0.362 1.6873 0.570 1.6873
1708771114.8198 0.362 0.363 1.6982 0.572 1.6982
1708771114.8284 0.362 0.365 1.7059 0.573 1.7059
1708771114.8359 0.362 0.366 1.7090 0.575 1.7090
1708771114.8435 0.362 0.368 1.7137 0.577 1.7137
1708771114.8518 0.361 0.370 1.7215 0.578 1.7215
1708771114.8606 0.361 0.371 1.7292 0.580 1.7292
1708771114.8682 0.361 0.372 1.7354 0.581 1.7354
1708771114.8756 0.361 0.374 1.7432 0.583 1.7432
1708771114.8834 0.360 0.376 1.7494 0.584 1.7494
1708771114.8918 0.360 0.377 1.7541 0.586 1.7541
1708771114.8997 0.360 0.379 1.7603 0.587 1.7603
1708771114.9084 0.360 0.380 1.7696 0.589 1.7696
1708771114.9157 0.359 0.382 1.7773 0.591 1.7773
1708771114.9240 0.359 0.384 1.7789 0.593 1.7789
1708771114.9318 0.359 0.384 1.7820 0.593 1.7820
1708771114.9401 0.358 0.386 1.7898 0.595 1.7898
1708771114.9480 0.358 0.388 1.7975 0.597 1.7975
1708771114.9557 0.357 0.390 1.8037 0.599 1.8037
1708771114.9641 0.357 0.391 1.8084 0.600 1.8084
1708771114.9725 0.357 0.392 1.8130 0.601 1.8130
1708771114.9803 0.357 0.394 1.8192 0.603 1.8192
1708771114.9875 0.356 0.396 1.8270 0.605 1.8270
1708771114.9961 0.356 0.398 1.8301 0.607 1.8301
1708771115.0037 0.355 0.399 1.8332 0.608 1.8332
1708771115.0120 0.355 0.400 1.8410 0.609 1.8410
1708771115.0205 0.354 0.402 1.8472 0.611 1.8472
1708771115.0283 0.354 0.404 1.8503 0.613 1.8503
