% Pose without folding and reset (log_20240224_121933.808/log_pose_abs.txt)
% 1 	Time (sec)
% 2,3 	Position x,y (m)
% 4 	heading (rad)
% 5 	Driven distance (m) - signed
% 6 	Turned angle (rad) - signed
1708773574.8298 0.000 0.000 0.0000 0.000 0.0000
1708773574.8388 0.000 0.000 0.0000 0.000 0.0000
1708773574.8463 0.000 0.000 0.0000 0.000 0.0000
1708773574.8529 0.000 0.000 0.0000 0.000 0.0000
1708773574.8620 0.000 0.000 0.0000 0.000 0.0000
1708773574.8690 0.000 0.000 0.0000 0.000 0.0000
1708773574.8767 0.000 0.000 0.0000 0.000 0.0000
1708773574.8865 0.000 0.000 0.0000 0.000 0.0000
1708773574.8933 0.000 0.000 0.0000 0.000 0.0000
1708773574.9010 0.000 0.000 0.0000 0.000 0.0000
1708773574.9094 0.000 0.000 0.0000 0.000 0.0000
1708773574.9167 0.000 0.000 0.0000 0.000 0.0000
1708773574.9246 0.000 0.000 0.0000 0.000 0.0000
1708773574.9342 0.000 0.000 0.0000 0.000 0.0000
1708773574.9408 0.000 0.000 0.0000 0.000 0.0000
1708773574.9484 0.000 0.000 0.0016 0.000 0.0016
1708773574.9578 0.002 0.000 -0.0016 0.002 -0.0016
1708773574.9649 0.003 -0.000 -0.0031 0.003 -0.0031
1708773574.9733 0.005 -0.000 -0.0016 0.005 -0.0016
1708773574.9817 0.006 -0.000 0.0000 0.006 0.0000
1708773574.9890 0.007 -0.000 0.0016 0.007 0.0016
1708773574.9971 0.009 -0.000 0.0031 0.009 0.0031
1708773575.0057 0.011 0.000 0.0047 0.011 0.0047
1708773575.0133 0.012 0.000 0.0062 0.012 0.0062
1708773575.0207 0.015 0.000 0.0078 0.015 0.0078
1708773575.0292 0.017 0.000 0.0109 0.017 0.0109
1708773575.0373 0.020 0.000 0.0155 0.020 0.0155
1708773575.0451 0.023 0.000 0.0186 0.023 0.0186
1708773575.0558 0.026 0.000 0.0202 0.026 0.0202
1708773575.0613 0.029 0.000 0.0217 0.029 0.0217
1708773575.0691 0.033 0.000 0.0233 0.033 0.0233
1708773575.0774 0.035 0.000 0.0295 0.035 0.0295
1708773575.0857 0.038 0.001 0.0373 0.038 0.0373
1708773575.0938 0.041 0.001 0.0419 0.041 0.0419
1708773575.1030 0.045 0.001 0.0435 0.045 0.0435
1708773575.1096 0.049 0.001 0.0435 0.049 0.0435
1708773575.1168 0.053 0.001 0.0481 0.053 0.0481
1708773575.1261 0.055 0.001 0.0543 0.055 0.0543
1708773575.1332 0.058 0.001 0.0590 0.058 0.0590
1708773575.1407 0.061 0.002 0.0621 0.061 0.0621
1708773575.1499 0.065 0.002 0.0621 0.065 0.0621
1708773575.1566 0.069 0.002 0.0652 0.069 0.0652
1708773575.1655 0.072 0.002 0.0683 0.072 0.0683
1708773575.1735 0.074 0.002 0.0745 0.074 0.0745
1708773575.1812 0.078 0.003 0.0761 0.078 0.0761
1708773575.1947 0.082 0.003 0.0761 0.082 0.0761
1708773575.1980 0.085 0.003 0.0761 0.085 0.0761
1708773575.2074 0.088 0.004 0.0776 0.088 0.0776
1708773575.2135 0.090 0.004 0.0807 0.090 0.0807
1708773575.2219 0.092 0.004 0.0854 0.092 0.0854
1708773575.2290 0.095 0.004 0.0854 0.095 0.0854
1708773575.2396 0.099 0.004 0.0838 0.099 0.0838
1708773575.2460 0.102 0.005 0.0854 0.102 0.0854
1708773575.2535 0.105 0.005 0.0869 0.105 0.0869
1708773575.2605 0.107 0.005 0.0869 0.108 0.0869
1708773575.2701 0.110 0.005 0.0854 0.110 0.0854
1708773575.2775 0.113 0.006 0.0838 0.114 0.0838
1708773575.2852 0.117 0.006 0.0854 0.117 0.0854
1708773575.2937 0.120 0.006 0.0885 0.120 0.0885
1708773575.3026 0.122 0.006 0.0869 0.123 0.0869
1708773575.3103 0.125 0.007 0.0807 0.126 0.0807
1708773575.3176 0.129 0.007 0.0776 0.129 0.0776
1708773575.3251 0.132 0.007 0.0823 0.132 0.0823
1708773575.3331 0.134 0.007 0.0869 0.135 0.0869
1708773575.3427 0.137 0.008 0.0838 0.138 0.0838
1708773575.3493 0.141 0.008 0.0761 0.141 0.0761
1708773575.3574 0.145 0.008 0.0730 0.145 0.0730
1708773575.3663 0.148 0.008 0.0745 0.148 0.0745
1708773575.3734 0.150 0.009 0.0776 0.150 0.0776
1708773575.3815 0.153 0.009 0.0761 0.153 0.0761
1708773575.3905 0.157 0.009 0.0730 0.157 0.0730
1708773575.3974 0.160 0.009 0.0667 0.160 0.0667
1708773575.4046 0.163 0.010 0.0636 0.164 0.0636
1708773575.4138 0.166 0.010 0.0667 0.166 0.0667
1708773575.4208 0.169 0.010 0.0683 0.169 0.0683
1708773575.4292 0.172 0.010 0.0667 0.173 0.0667
1708773575.4383 0.176 0.010 0.0621 0.176 0.0621
1708773575.4455 0.179 0.011 0.0590 0.179 0.0590
1708773575.4537 0.182 0.011 0.0590 0.182 0.0590
1708773575.4627 0.185 0.011 0.0621 0.185 0.0621
1708773575.4690 0.188 0.011 0.0605 0.188 0.0605
1708773575.4767 0.191 0.011 0.0543 0.192 0.0543
1708773575.4864 0.194 0.012 0.0528 0.194 0.0528
1708773575.4926 0.197 0.012 0.0559 0.197 0.0559
1708773575.5005 0.200 0.012 0.0574 0.201 0.0574
1708773575.5099 0.204 0.012 0.0528 0.204 0.0528
1708773575.5172 0.207 0.012 0.0450 0.207 0.0450
1708773575.5255 0.210 0.012 0.0419 0.211 0.0419
1708773575.5343 0.213 0.012 0.0450 0.214 0.0450
1708773575.5412 0.216 0.013 0.0450 0.217 0.0450
1708773575.5492 0.219 0.013 0.0435 0.220 0.0435
1708773575.5575 0.223 0.013 0.0357 0.223 0.0357
1708773575.5658 0.226 0.013 0.0295 0.226 0.0295
1708773575.5727 0.229 0.013 0.0295 0.229 0.0295
1708773575.5821 0.232 0.013 0.0326 0.233 0.0326
1708773575.5890 0.235 0.013 0.0310 0.236 0.0310
1708773575.5969 0.239 0.013 0.0264 0.239 0.0264
1708773575.6053 0.241 0.013 0.0217 0.242 0.0217
1708773575.6133 0.244 0.014 0.0217 0.245 0.0217
1708773575.6217 0.248 0.014 0.0202 0.248 0.0202
1708773575.6300 0.252 0.014 0.0186 0.252 0.0186
1708773575.6373 0.255 0.014 0.0155 0.255 0.0155
1708773575.6450 0.257 0.014 0.0140 0.258 0.0140
1708773575.6536 0.260 0.014 0.0140 0.261 0.0140
1708773575.6616 0.264 0.014 0.0140 0.264 0.0140
1708773575.6689 0.268 0.014 0.0109 0.268 0.0109
1708773575.6775 0.271 0.014 0.0078 0.271 0.0078
1708773575.6876 0.273 0.014 0.0062 0.273 0.0062
1708773575.6933 0.276 0.014 0.0062 0.276 0.0062
1708773575.7028 0.279 0.014 0.0031 0.280 0.0031
1708773575.7090 0.283 0.014 0.0016 0.283 0.0016
1708773575.7166 0.286 0.014 0.0016 0.286 0.0016
1708773575.7251 0.288 0.014 -0.0016 0.289 -0.0016
1708773575.7335 0.291 0.014 -0.0047 0.292 -0.0047
1708773575.7411 0.295 0.014 -0.0062 0.295 -0.0062
1708773575.7493 0.299 0.014 -0.0078 0.299 -0.0078
1708773575.7567 0.302 0.014 -0.0078 0.302 -0.0078
1708773575.7647 0.304 0.014 -0.0093 0.305 -0.0093
1708773575.7741 0.307 0.014 -0.0124 0.307 -0.0124
1708773575.7814 0.311 0.014 -0.0171 0.311 -0.0171
1708773575.7889 0.314 0.014 -0.0171 0.315 -0.0171
1708773575.7973 0.317 0.014 -0.0155 0.318 -0.0155
1708773575.8045 0.320 0.014 -0.0155 0.320 -0.0155
1708773575.8134 0.323 0.014 -0.0186 0.323 -0.0186
1708773575.8213 0.327 0.014 -0.0217 0.327 -0.0217
1708773575.8285 0.330 0.013 -0.0233 0.331 -0.0233
1708773575.8368 0.333 0.013 -0.0233 0.334 -0.0233
1708773575.8456 0.335 0.013 -0.0233 0.336 -0.0233
1708773575.8528 0.338 0.013 -0.0264 0.339 -0.0264
1708773575.8605 0.342 0.013 -0.0279 0.343 -0.0279
1708773575.8699 0.346 0.013 -0.0295 0.346 -0.0295
1708773575.8772 0.349 0.013 -0.0295 0.349 -0.0295
1708773575.8854 0.352 0.013 -0.0295 0.352 -0.0295
1708773575.8936 0.355 0.013 -0.0326 0.356 -0.0326
1708773575.9008 0.359 0.013 -0.0357 0.359 -0.0357
1708773575.9086 0.362 0.013 -0.0404 0.362 -0.0404
1708773575.9179 0.364 0.012 -0.0388 0.365 -0.0388
1708773575.9250 0.367 0.012 -0.0341 0.368 -0.0341
1708773575.9329 0.371 0.012 -0.0341 0.371 -0.0341
1708773575.9417 0.374 0.012 -0.0388 0.375 -0.0388
1708773575.9490 0.377 0.012 -0.0450 0.378 -0.0450
1708773575.9572 0.380 0.012 -0.0435 0.381 -0.0435
1708773575.9658 0.384 0.012 -0.0388 0.384 -0.0388
1708773575.9735 0.387 0.012 -0.0388 0.387 -0.0388
1708773575.9814 0.390 0.011 -0.0450 0.391 -0.0450
1708773575.9897 0.393 0.011 -0.0512 0.394 -0.0512
1708773575.9970 0.396 0.011 -0.0481 0.397 -0.0481
1708773576.0049 0.400 0.011 -0.0450 0.400 -0.0450
1708773576.0132 0.402 0.011 -0.0466 0.403 -0.0466
1708773576.0214 0.406 0.011 -0.0543 0.406 -0.0543
1708773576.0294 0.409 0.010 -0.0574 0.409 -0.0574
1708773576.0373 0.413 0.010 -0.0559 0.413 -0.0559
1708773576.0446 0.416 0.010 -0.0528 0.416 -0.0528
1708773576.0528 0.418 0.010 -0.0543 0.419 -0.0543
1708773576.0619 0.421 0.010 -0.0605 0.422 -0.0605
1708773576.0694 0.425 0.010 -0.0636 0.426 -0.0636
1708773576.0786 0.429 0.009 -0.0605 0.429 -0.0605
1708773576.0866 0.431 0.009 -0.0559 0.432 -0.0559
1708773576.0925 0.434 0.009 -0.0528 0.435 -0.0528
1708773576.1010 0.437 0.009 -0.0590 0.438 -0.0590
1708773576.1094 0.441 0.009 -0.0636 0.441 -0.0636
1708773576.1165 0.444 0.008 -0.0652 0.444 -0.0652
1708773576.1246 0.447 0.008 -0.0605 0.448 -0.0605
1708773576.1333 0.450 0.008 -0.0590 0.450 -0.0590
1708773576.1415 0.453 0.008 -0.0621 0.453 -0.0621
1708773576.1487 0.457 0.008 -0.0652 0.457 -0.0652
1708773576.1580 0.460 0.007 -0.0667 0.460 -0.0667
1708773576.1648 0.462 0.007 -0.0667 0.463 -0.0667
1708773576.1730 0.466 0.007 -0.0652 0.466 -0.0652
1708773576.1815 0.469 0.007 -0.0636 0.469 -0.0636
1708773576.1896 0.472 0.007 -0.0667 0.473 -0.0667
1708773576.2024 0.476 0.006 -0.0699 0.476 -0.0699
1708773576.2053 0.479 0.006 -0.0667 0.479 -0.0667
1708773576.2127 0.481 0.006 -0.0652 0.482 -0.0652
1708773576.2206 0.483 0.006 -0.0667 0.483 -0.0667
1708773576.2293 0.485 0.006 -0.0699 0.486 -0.0699
1708773576.2375 0.489 0.005 -0.0714 0.490 -0.0714
1708773576.2453 0.493 0.005 -0.0730 0.494 -0.0730
1708773576.2537 0.496 0.005 -0.0714 0.497 -0.0714
1708773576.2613 0.498 0.005 -0.0683 0.499 -0.0683
1708773576.2693 0.501 0.005 -0.0683 0.502 -0.0683
1708773576.2777 0.504 0.004 -0.0714 0.505 -0.0714
1708773576.2867 0.508 0.004 -0.0745 0.509 -0.0745
1708773576.2925 0.511 0.004 -0.0730 0.512 -0.0730
1708773576.3019 0.514 0.004 -0.0730 0.514 -0.0730
1708773576.3094 0.516 0.004 -0.0714 0.516 -0.0714
1708773576.3174 0.519 0.003 -0.0714 0.520 -0.0714
1708773576.3256 0.523 0.003 -0.0714 0.524 -0.0714
1708773576.3329 0.527 0.003 -0.0730 0.528 -0.0730
1708773576.3408 0.529 0.003 -0.0730 0.530 -0.0730
1708773576.3493 0.532 0.002 -0.0714 0.533 -0.0714
1708773576.3568 0.535 0.002 -0.0714 0.536 -0.0714
1708773576.3649 0.539 0.002 -0.0699 0.540 -0.0699
1708773576.3734 0.542 0.002 -0.0699 0.543 -0.0699
1708773576.3806 0.545 0.001 -0.0714 0.546 -0.0714
1708773576.3895 0.548 0.001 -0.0699 0.549 -0.0699
1708773576.3978 0.551 0.001 -0.0699 0.552 -0.0699
1708773576.4053 0.555 0.001 -0.0714 0.556 -0.0714
1708773576.4191 0.558 0.001 -0.0699 0.559 -0.0699
1708773576.4218 0.561 0.000 -0.0699 0.561 -0.0699
1708773576.4294 0.563 0.000 -0.0667 0.564 -0.0667
1708773576.4369 0.564 0.000 -0.0652 0.565 -0.0652
1708773576.4453 0.565 0.000 -0.0699 0.566 -0.0699
1708773576.4528 0.569 -0.000 -0.0699 0.570 -0.0699
1708773576.4608 0.574 -0.001 -0.0683 0.574 -0.0683
1708773576.4691 0.576 -0.001 -0.0667 0.577 -0.0667
1708773576.4765 0.578 -0.001 -0.0683 0.579 -0.0683
1708773576.4861 0.581 -0.001 -0.0667 0.582 -0.0667
1708773576.4935 0.585 -0.001 -0.0667 0.586 -0.0667
1708773576.5009 0.589 -0.002 -0.0652 0.590 -0.0652
1708773576.5087 0.592 -0.002 -0.0652 0.593 -0.0652
1708773576.5178 0.594 -0.002 -0.0636 0.595 -0.0636
1708773576.5250 0.597 -0.002 -0.0636 0.598 -0.0636
1708773576.5328 0.600 -0.002 -0.0636 0.601 -0.0636
1708773576.5417 0.604 -0.003 -0.0621 0.605 -0.0621
1708773576.5490 0.607 -0.003 -0.0605 0.608 -0.0605
1708773576.5567 0.610 -0.003 -0.0590 0.611 -0.0590
1708773576.5660 0.613 -0.003 -0.0590 0.614 -0.0590
1708773576.5732 0.616 -0.003 -0.0590 0.617 -0.0590
1708773576.5810 0.620 -0.003 -0.0574 0.621 -0.0574
1708773576.5898 0.623 -0.004 -0.0543 0.624 -0.0543
1708773576.5970 0.625 -0.004 -0.0543 0.626 -0.0543
1708773576.6046 0.629 -0.004 -0.0512 0.630 -0.0512
1708773576.6139 0.633 -0.004 -0.0481 0.634 -0.0481
1708773576.6214 0.635 -0.004 -0.0450 0.636 -0.0450
1708773576.6293 0.638 -0.004 -0.0435 0.639 -0.0435
1708773576.6374 0.642 -0.005 -0.0419 0.643 -0.0419
1708773576.6456 0.645 -0.005 -0.0388 0.646 -0.0388
1708773576.6533 0.648 -0.005 -0.0373 0.649 -0.0373
1708773576.6615 0.651 -0.005 -0.0341 0.652 -0.0341
1708773576.6689 0.655 -0.005 -0.0310 0.656 -0.0310
1708773576.6767 0.658 -0.005 -0.0295 0.659 -0.0295
1708773576.6867 0.661 -0.005 -0.0279 0.662 -0.0279
1708773576.6926 0.663 -0.005 -0.0233 0.664 -0.0233
1708773576.7008 0.667 -0.005 -0.0202 0.668 -0.0202
1708773576.7101 0.670 -0.005 -0.0171 0.671 -0.0171
1708773576.7173 0.673 -0.005 -0.0155 0.674 -0.0155
1708773576.7253 0.677 -0.006 -0.0124 0.678 -0.0124
1708773576.7336 0.680 -0.006 -0.0078 0.681 -0.0078
1708773576.7415 0.683 -0.006 -0.0047 0.684 -0.0047
1708773576.7487 0.686 -0.006 -0.0031 0.687 -0.0031
1708773576.7580 0.690 -0.006 -0.0016 0.691 -0.0016
1708773576.7654 0.693 -0.006 0.0000 0.694 0.0000
1708773576.7732 0.696 -0.006 0.0062 0.697 0.0062
1708773576.7813 0.699 -0.006 0.0093 0.700 0.0093
1708773576.7894 0.702 -0.006 0.0109 0.703 0.0109
1708773576.7971 0.705 -0.005 0.0093 0.706 0.0093
1708773576.8054 0.708 -0.005 0.0124 0.710 0.0124
1708773576.8127 0.712 -0.005 0.0202 0.713 0.0202
1708773576.8213 0.715 -0.005 0.0248 0.716 0.0248
1708773576.8295 0.719 -0.005 0.0217 0.720 0.0217
1708773576.8374 0.722 -0.005 0.0155 0.723 0.0155
1708773576.8454 0.725 -0.005 0.0171 0.726 0.0171
1708773576.8540 0.728 -0.005 0.0264 0.729 0.0264
1708773576.8613 0.731 -0.005 0.0310 0.732 0.0310
1708773576.8691 0.735 -0.005 0.0279 0.736 0.0279
1708773576.8778 0.738 -0.005 0.0233 0.739 0.0233
1708773576.8858 0.741 -0.005 0.0248 0.742 0.0248
1708773576.8926 0.744 -0.005 0.0295 0.745 0.0295
1708773576.9020 0.747 -0.005 0.0279 0.748 0.0279
1708773576.9093 0.750 -0.004 0.0248 0.751 0.0248
1708773576.9174 0.753 -0.004 0.0233 0.754 0.0233
1708773576.9258 0.756 -0.004 0.0248 0.757 0.0248
1708773576.9330 0.760 -0.004 0.0233 0.761 0.0233
1708773576.9415 0.763 -0.004 0.0186 0.764 0.0186
1708773576.9499 0.765 -0.004 0.0186 0.766 0.0186
1708773576.9571 0.769 -0.004 0.0186 0.770 0.0186
1708773576.9649 0.773 -0.004 0.0186 0.774 0.0186
1708773576.9734 0.776 -0.004 0.0186 0.777 0.0186
1708773576.9806 0.778 -0.004 0.0171 0.779 0.0171
1708773576.9891 0.782 -0.004 0.0124 0.783 0.0124
1708773576.9974 0.785 -0.004 0.0109 0.786 0.0109
1708773577.0056 0.788 -0.004 0.0124 0.789 0.0124
1708773577.0130 0.791 -0.004 0.0124 0.792 0.0124
1708773577.0215 0.795 -0.004 0.0078 0.796 0.0078
1708773577.0288 0.798 -0.004 0.0047 0.799 0.0047
1708773577.0373 0.801 -0.004 0.0078 0.802 0.0078
1708773577.0456 0.804 -0.004 0.0093 0.805 0.0093
1708773577.0527 0.807 -0.004 0.0078 0.808 0.0078
1708773577.0611 0.810 -0.004 0.0016 0.812 0.0016
1708773577.0694 0.813 -0.004 -0.0016 0.814 -0.0016
1708773577.0767 0.816 -0.004 0.0000 0.817 0.0000
1708773577.0852 0.820 -0.004 0.0031 0.821 0.0031
1708773577.0935 0.823 -0.004 0.0016 0.824 0.0016
1708773577.1008 0.827 -0.004 -0.0031 0.828 -0.0031
1708773577.1088 0.829 -0.004 -0.0047 0.830 -0.0047
1708773577.1171 0.832 -0.004 0.0000 0.833 0.0000
1708773577.1254 0.835 -0.004 0.0016 0.836 0.0016
1708773577.1332 0.839 -0.004 -0.0031 0.840 -0.0031
1708773577.1420 0.842 -0.004 -0.0093 0.843 -0.0093
1708773577.1493 0.846 -0.004 -0.0078 0.847 -0.0078
1708773577.1572 0.849 -0.004 -0.0047 0.850 -0.0047
1708773577.1654 0.852 -0.004 -0.0047 0.853 -0.0047
1708773577.1726 0.855 -0.004 -0.0093 0.856 -0.0093
1708773577.1815 0.858 -0.004 -0.0109 0.859 -0.0109
1708773577.1895 0.862 -0.004 -0.0093 0.863 -0.0093
1708773577.1968 0.865 -0.004 -0.0047 0.866 -0.0047
1708773577.2046 0.868 -0.004 -0.0047 0.869 -0.0047
1708773577.2139 0.871 -0.004 -0.0093 0.872 -0.0093
1708773577.2212 0.874 -0.004 -0.0093 0.875 -0.0093
1708773577.2290 0.878 -0.004 -0.0062 0.879 -0.0062
1708773577.2378 0.881 -0.004 -0.0031 0.882 -0.0031
1708773577.2450 0.884 -0.004 -0.0047 0.885 -0.0047
1708773577.2530 0.887 -0.004 -0.0078 0.888 -0.0078
1708773577.2613 0.890 -0.004 -0.0047 0.892 -0.0047
1708773577.2690 0.894 -0.004 -0.0031 0.895 -0.0031
1708773577.2766 0.896 -0.004 -0.0047 0.898 -0.0047
1708773577.2867 0.900 -0.004 -0.0093 0.901 -0.0093
1708773577.2928 0.903 -0.004 -0.0062 0.904 -0.0062
1708773577.3006 0.906 -0.004 -0.0016 0.907 -0.0016
1708773577.3099 0.909 -0.004 -0.0016 0.910 -0.0016
1708773577.3172 0.912 -0.004 -0.0047 0.913 -0.0047
1708773577.3245 0.916 -0.004 -0.0062 0.917 -0.0062
1708773577.3332 0.919 -0.004 -0.0031 0.920 -0.0031
1708773577.3415 0.922 -0.004 -0.0016 0.923 -0.0016
1708773577.3488 0.925 -0.004 0.0016 0.926 0.0016
1708773577.3575 0.928 -0.004 0.0000 0.929 0.0000
1708773577.3657 0.932 -0.004 -0.0016 0.933 -0.0016
1708773577.3728 0.935 -0.004 0.0000 0.936 0.0000
1708773577.3821 0.937 -0.004 0.0031 0.938 0.0031
1708773577.3890 0.940 -0.004 0.0062 0.941 0.0062
1708773577.3972 0.944 -0.004 0.0047 0.945 0.0047
1708773577.4055 0.947 -0.004 0.0031 0.948 0.0031
1708773577.4125 0.950 -0.004 0.0047 0.951 0.0047
1708773577.4215 0.953 -0.004 0.0078 0.954 0.0078
1708773577.4298 0.956 -0.004 0.0109 0.957 0.0109
1708773577.4367 0.959 -0.004 0.0109 0.961 0.0109
1708773577.4448 0.963 -0.004 0.0093 0.964 0.0093
1708773577.4541 0.966 -0.004 0.0093 0.967 0.0093
1708773577.4612 0.968 -0.004 0.0124 0.969 0.0124
1708773577.4690 0.972 -0.004 0.0155 0.973 0.0155
1708773577.4773 0.975 -0.004 0.0140 0.976 0.0140
1708773577.4852 0.978 -0.004 0.0140 0.979 0.0140
1708773577.4931 0.981 -0.004 0.0140 0.982 0.0140
1708773577.5013 0.985 -0.004 0.0155 0.986 0.0155
1708773577.5086 0.988 -0.004 0.0171 0.989 0.0171
1708773577.5174 0.992 -0.004 0.0140 0.993 0.0140
1708773577.5259 0.994 -0.003 0.0140 0.995 0.0140
1708773577.5333 0.997 -0.003 0.0186 0.998 0.0186
1708773577.5411 1.001 -0.003 0.0202 1.002 0.0202
1708773577.5493 1.004 -0.003 0.0155 1.005 0.0155
1708773577.5566 1.007 -0.003 0.0140 1.008 0.0140
1708773577.5645 1.010 -0.003 0.0171 1.011 0.0171
1708773577.5738 1.013 -0.003 0.0217 1.014 0.0217
1708773577.5810 1.016 -0.003 0.0233 1.017 0.0233
1708773577.5886 1.020 -0.003 0.0202 1.021 0.0202
1708773577.5978 1.023 -0.003 0.0186 1.024 0.0186
1708773577.6050 1.026 -0.003 0.0186 1.027 0.0186
1708773577.6129 1.029 -0.003 0.0202 1.030 0.0202
1708773577.6211 1.033 -0.003 0.0217 1.034 0.0217
1708773577.6294 1.036 -0.003 0.0217 1.037 0.0217
1708773577.6366 1.039 -0.003 0.0186 1.040 0.0186
1708773577.6459 1.042 -0.003 0.0171 1.043 0.0171
1708773577.6532 1.046 -0.002 0.0186 1.047 0.0186
1708773577.6607 1.049 -0.002 0.0202 1.050 0.0202
1708773577.6701 1.052 -0.002 0.0186 1.053 0.0186
1708773577.6774 1.055 -0.002 0.0140 1.056 0.0140
1708773577.6857 1.058 -0.002 0.0124 1.059 0.0124
1708773577.6940 1.061 -0.002 0.0140 1.062 0.0140
1708773577.7013 1.065 -0.002 0.0171 1.066 0.0171
1708773577.7091 1.068 -0.002 0.0155 1.069 0.0155
1708773577.7174 1.071 -0.002 0.0124 1.072 0.0124
1708773577.7256 1.074 -0.002 0.0124 1.075 0.0124
1708773577.7326 1.078 -0.002 0.0140 1.079 0.0140
1708773577.7416 1.081 -0.002 0.0140 1.082 0.0140
1708773577.7488 1.084 -0.002 0.0109 1.085 0.0109
1708773577.7568 1.087 -0.002 0.0093 1.088 0.0093
1708773577.7662 1.090 -0.002 0.0109 1.091 0.0109
1708773577.7732 1.093 -0.002 0.0140 1.094 0.0140
1708773577.7810 1.096 -0.002 0.0093 1.097 0.0093
1708773577.7901 1.099 -0.002 0.0047 1.100 0.0047
1708773577.7975 1.102 -0.002 0.0047 1.103 0.0047
1708773577.8053 1.106 -0.002 0.0093 1.107 0.0093
1708773577.8137 1.109 -0.002 0.0093 1.110 0.0093
1708773577.8215 1.112 -0.002 0.0047 1.113 0.0047
1708773577.8294 1.115 -0.002 0.0016 1.116 0.0016
1708773577.8373 1.118 -0.002 0.0047 1.119 0.0047
1708773577.8446 1.121 -0.002 0.0078 1.122 0.0078
1708773577.8529 1.125 -0.002 0.0047 1.126 0.0047
1708773577.8620 1.128 -0.002 0.0000 1.129 0.0000
1708773577.8693 1.131 -0.002 -0.0016 1.132 -0.0016
1708773577.8775 1.134 -0.002 0.0016 1.136 0.0016
1708773577.8864 1.137 -0.002 0.0031 1.138 0.0031
1708773577.8926 1.140 -0.002 0.0031 1.141 0.0031
1708773577.9015 1.143 -0.002 0.0000 1.144 0.0000
1708773577.9097 1.146 -0.002 -0.0016 1.147 -0.0016
1708773577.9174 1.150 -0.002 -0.0016 1.151 -0.0016
1708773577.9254 1.153 -0.002 0.0000 1.154 0.0000
1708773577.9337 1.157 -0.002 0.0000 1.158 0.0000
1708773577.9406 1.159 -0.002 -0.0016 1.160 -0.0016
1708773577.9485 1.162 -0.002 -0.0047 1.163 -0.0047
1708773577.9578 1.166 -0.002 -0.0031 1.167 -0.0031
1708773577.9652 1.169 -0.002 0.0000 1.170 0.0000
1708773577.9732 1.172 -0.002 -0.0016 1.173 -0.0016
1708773577.9815 1.175 -0.002 -0.0031 1.176 -0.0031
1708773577.9894 1.178 -0.002 -0.0031 1.179 -0.0031
1708773577.9970 1.182 -0.002 -0.0016 1.183 -0.0016
1708773578.0053 1.185 -0.002 0.0016 1.186 0.0016
1708773578.0126 1.188 -0.002 0.0000 1.189 0.0000
1708773578.0215 1.191 -0.002 -0.0047 1.193 -0.0047
