% Pose without folding and reset (log_20240224_113257.385/log_pose_abs.txt)
% 1 	Time (sec)
% 2,3 	Position x,y (m)
% 4 	heading (rad)
% 5 	Driven distance (m) - signed
% 6 	Turned angle (rad) - signed
1708770777.7437 0.000 0.000 0.0000 0.000 0.0000
1708770777.7525 0.000 0.000 0.0000 0.000 0.0000
1708770777.7585 -0.000 -0.000 0.0016 -0.000 0.0016
1708770777.7675 -0.000 -0.000 0.0016 -0.000 0.0016
1708770777.7753 -0.000 -0.000 0.0016 -0.000 0.0016
1708770777.7828 -0.000 -0.000 0.0016 -0.000 0.0016
1708770777.7905 -0.000 -0.000 0.0016 -0.000 0.0016
1708770777.7998 -0.000 -0.000 0.0016 -0.000 0.0016
1708770777.8072 -0.000 -0.000 0.0016 -0.000 0.0016
1708770777.8148 -0.000 -0.000 0.0016 -0.000 0.0016
1708770777.8241 -0.000 -0.000 0.0016 -0.000 0.0016
1708770777.8307 -0.000 -0.000 0.0016 -0.000 0.0016
1708770777.8396 -0.000 -0.000 0.0016 -0.000 0.0016
1708770777.8484 -0.000 -0.000 0.0016 -0.000 0.0016
1708770777.8545 -0.000 -0.000 0.0016 -0.000 0.0016
1708770777.8632 -0.000 -0.000 0.0016 -0.000 0.0016
1708770777.8718 -0.000 0.000 0.0031 0.000 0.0031
1708770777.8793 0.001 0.000 0.0000 0.001 0.0000
1708770777.8871 0.002 0.000 0.0000 0.002 0.0000
1708770777.8956 0.002 0.000 0.0000 0.002 0.0000
1708770777.9032 0.002 0.000 0.0016 0.002 0.0016
1708770777.9111 0.003 0.000 -0.0000 0.003 -0.0000
1708770777.9198 0.004 0.000 -0.0016 0.004 -0.0016
1708770777.9351 0.005 0.000 -0.0000 0.005 -0.0000
1708770777.9391 0.006 0.000 -0.0000 0.006 -0.0000
1708770777.9441 0.007 0.000 -0.0000 0.007 -0.0000
1708770777.9513 0.008 0.000 -0.0016 0.008 -0.0016
1708770777.9590 0.009 0.000 -0.0000 0.009 -0.0000
1708770777.9680 0.010 0.000 -0.0000 0.010 -0.0000
1708770777.9750 0.012 0.000 0.0016 0.012 0.0016
1708770777.9831 0.014 0.000 0.0016 0.014 0.0016
1708770777.9919 0.015 0.000 0.0016 0.015 0.0016
1708770777.9993 0.016 0.000 0.0031 0.016 0.0031
1708770778.0090 0.018 0.000 0.0016 0.018 0.0016
1708770778.0168 0.020 0.000 -0.0000 0.020 -0.0000
1708770778.0248 0.021 0.000 0.0016 0.021 0.0016
1708770778.0314 0.023 0.000 0.0047 0.023 0.0047
1708770778.0393 0.025 0.000 0.0031 0.025 0.0031
1708770778.0473 0.026 0.000 0.0016 0.026 0.0016
1708770778.0556 0.028 0.000 0.0031 0.028 0.0031
1708770778.0636 0.029 0.000 0.0078 0.029 0.0078
1708770778.0714 0.031 0.000 0.0093 0.031 0.0093
1708770778.0793 0.033 0.000 0.0078 0.033 0.0078
1708770778.0874 0.034 0.000 0.0047 0.034 0.0047
1708770778.0951 0.035 0.000 0.0031 0.035 0.0031
1708770778.1039 0.037 0.000 0.0078 0.037 0.0078
1708770778.1116 0.039 0.000 0.0109 0.039 0.0109
1708770778.1191 0.041 0.000 0.0093 0.041 0.0093
1708770778.1270 0.042 0.000 0.0078 0.042 0.0078
1708770778.1359 0.043 0.000 0.0078 0.043 0.0078
1708770778.1436 0.045 0.000 0.0109 0.045 0.0109
1708770778.1510 0.047 0.000 0.0124 0.047 0.0124
1708770778.1599 0.049 0.000 0.0109 0.049 0.0109
1708770778.1674 0.050 0.000 0.0093 0.050 0.0093
1708770778.1754 0.051 0.000 0.0093 0.051 0.0093
1708770778.1834 0.053 0.000 0.0109 0.053 0.0109
1708770778.1910 0.055 0.000 0.0124 0.055 0.0124
1708770778.1994 0.057 0.000 0.0109 0.057 0.0109
1708770778.2086 0.058 0.000 0.0124 0.058 0.0124
1708770778.2154 0.059 0.000 0.0140 0.059 0.0140
1708770778.2234 0.061 0.000 0.0171 0.061 0.0171
1708770778.2313 0.063 0.000 0.0155 0.063 0.0155
1708770778.2391 0.064 0.000 0.0109 0.064 0.0109
1708770778.2470 0.066 0.000 0.0124 0.066 0.0124
1708770778.2553 0.067 0.000 0.0155 0.067 0.0155
1708770778.2640 0.069 0.000 0.0186 0.069 0.0186
1708770778.2718 0.071 0.001 0.0171 0.071 0.0171
1708770778.2796 0.072 0.001 0.0140 0.072 0.0140
1708770778.2873 0.073 0.001 0.0171 0.073 0.0171
1708770778.2951 0.075 0.001 0.0217 0.075 0.0217
1708770778.3037 0.077 0.001 0.0202 0.077 0.0202
1708770778.3113 0.078 0.001 0.0155 0.078 0.0155
1708770778.3191 0.080 0.001 0.0140 0.080 0.0140
1708770778.3280 0.081 0.001 0.0155 0.081 0.0155
1708770778.3356 0.083 0.001 0.0202 0.083 0.0202
1708770778.3434 0.085 0.001 0.0217 0.085 0.0217
1708770778.3518 0.086 0.001 0.0186 0.086 0.0186
1708770778.3595 0.088 0.001 0.0140 0.088 0.0140
1708770778.3674 0.089 0.001 0.0171 0.089 0.0171
1708770778.3753 0.091 0.001 0.0233 0.091 0.0233
1708770778.3840 0.093 0.001 0.0248 0.093 0.0248
1708770778.3916 0.094 0.001 0.0202 0.094 0.0202
1708770778.4001 0.096 0.001 0.0186 0.096 0.0186
1708770778.4078 0.098 0.001 0.0233 0.098 0.0233
1708770778.4156 0.099 0.001 0.0295 0.099 0.0295
1708770778.4234 0.101 0.001 0.0295 0.101 0.0295
1708770778.4310 0.102 0.001 0.0248 0.102 0.0248
1708770778.4391 0.104 0.001 0.0233 0.104 0.0233
1708770778.4477 0.106 0.001 0.0279 0.106 0.0279
1708770778.4560 0.107 0.001 0.0310 0.107 0.0310
1708770778.4638 0.109 0.001 0.0310 0.109 0.0310
1708770778.4716 0.110 0.001 0.0279 0.110 0.0279
1708770778.4791 0.112 0.001 0.0264 0.112 0.0264
1708770778.4880 0.114 0.001 0.0310 0.114 0.0310
1708770778.4959 0.115 0.001 0.0341 0.115 0.0341
1708770778.5034 0.117 0.002 0.0341 0.117 0.0341
1708770778.5113 0.118 0.002 0.0310 0.118 0.0310
1708770778.5192 0.120 0.002 0.0326 0.121 0.0326
1708770778.5279 0.122 0.002 0.0357 0.122 0.0357
1708770778.5358 0.122 0.002 0.0388 0.122 0.0388
1708770778.5436 0.124 0.002 0.0388 0.124 0.0388
1708770778.5520 0.127 0.002 0.0388 0.127 0.0388
1708770778.5598 0.128 0.002 0.0373 0.128 0.0373
1708770778.5702 0.129 0.002 0.0373 0.129 0.0373
1708770778.5758 0.130 0.002 0.0419 0.130 0.0419
1708770778.5840 0.132 0.002 0.0466 0.132 0.0466
1708770778.5918 0.134 0.002 0.0450 0.134 0.0450
1708770778.5991 0.136 0.002 0.0388 0.136 0.0388
1708770778.6077 0.137 0.002 0.0388 0.137 0.0388
1708770778.6155 0.138 0.002 0.0419 0.138 0.0419
1708770778.6232 0.140 0.002 0.0466 0.140 0.0466
1708770778.6312 0.142 0.003 0.0481 0.142 0.0481
1708770778.6393 0.143 0.003 0.0419 0.144 0.0419
1708770778.6480 0.145 0.003 0.0435 0.145 0.0435
1708770778.6556 0.147 0.003 0.0481 0.147 0.0481
1708770778.6633 0.148 0.003 0.0543 0.148 0.0543
1708770778.6720 0.150 0.003 0.0497 0.150 0.0497
1708770778.6799 0.151 0.003 0.0450 0.151 0.0450
1708770778.6876 0.153 0.003 0.0466 0.153 0.0466
1708770778.6955 0.155 0.003 0.0528 0.155 0.0528
1708770778.7030 0.156 0.003 0.0574 0.156 0.0574
1708770778.7120 0.158 0.003 0.0559 0.158 0.0559
1708770778.7197 0.159 0.003 0.0497 0.160 0.0497
1708770778.7275 0.161 0.004 0.0497 0.161 0.0497
1708770778.7357 0.163 0.004 0.0574 0.163 0.0574
1708770778.7434 0.164 0.004 0.0621 0.164 0.0621
1708770778.7518 0.166 0.004 0.0605 0.166 0.0605
1708770778.7599 0.167 0.004 0.0528 0.167 0.0528
1708770778.7677 0.169 0.004 0.0528 0.169 0.0528
1708770778.7754 0.171 0.004 0.0590 0.171 0.0590
1708770778.7834 0.172 0.004 0.0652 0.172 0.0652
1708770778.7920 0.174 0.004 0.0636 0.174 0.0636
1708770778.7992 0.176 0.004 0.0574 0.176 0.0574
1708770778.8081 0.177 0.004 0.0528 0.177 0.0528
1708770778.8157 0.179 0.005 0.0605 0.179 0.0605
1708770778.8235 0.180 0.005 0.0667 0.180 0.0667
1708770778.8317 0.182 0.005 0.0652 0.182 0.0652
1708770778.8392 0.184 0.005 0.0590 0.184 0.0590
1708770778.8470 0.185 0.005 0.0559 0.185 0.0559
1708770778.8555 0.186 0.005 0.0605 0.187 0.0605
1708770778.8631 0.188 0.005 0.0652 0.188 0.0652
1708770778.8721 0.190 0.005 0.0636 0.190 0.0636
1708770778.8798 0.192 0.005 0.0590 0.192 0.0590
1708770778.8873 0.193 0.005 0.0559 0.193 0.0559
1708770778.8952 0.195 0.006 0.0605 0.195 0.0605
1708770778.9039 0.196 0.006 0.0652 0.196 0.0652
1708770778.9117 0.198 0.006 0.0652 0.198 0.0652
1708770778.9195 0.199 0.006 0.0590 0.200 0.0590
1708770778.9282 0.201 0.006 0.0559 0.201 0.0559
1708770778.9358 0.202 0.006 0.0605 0.202 0.0605
1708770778.9435 0.204 0.006 0.0636 0.204 0.0636
1708770778.9520 0.206 0.006 0.0621 0.206 0.0621
1708770778.9596 0.208 0.006 0.0574 0.208 0.0574
1708770778.9674 0.209 0.006 0.0574 0.209 0.0574
1708770778.9761 0.210 0.006 0.0636 0.210 0.0636
1708770778.9837 0.212 0.007 0.0667 0.212 0.0667
1708770778.9915 0.214 0.007 0.0621 0.214 0.0621
1708770779.0002 0.215 0.007 0.0574 0.216 0.0574
1708770779.0070 0.217 0.007 0.0590 0.217 0.0590
1708770779.0156 0.218 0.007 0.0636 0.219 0.0636
1708770779.0242 0.220 0.007 0.0621 0.220 0.0621
1708770779.0320 0.222 0.007 0.0590 0.222 0.0590
1708770779.0392 0.224 0.007 0.0590 0.224 0.0590
1708770779.0473 0.225 0.007 0.0621 0.225 0.0621
1708770779.0556 0.226 0.007 0.0621 0.226 0.0621
1708770779.0634 0.228 0.008 0.0605 0.228 0.0605
1708770779.0712 0.230 0.008 0.0590 0.230 0.0590
1708770779.0792 0.231 0.008 0.0621 0.232 0.0621
1708770779.0876 0.233 0.008 0.0652 0.233 0.0652
1708770779.0956 0.234 0.008 0.0636 0.234 0.0636
1708770779.1030 0.236 0.008 0.0590 0.236 0.0590
1708770779.1117 0.238 0.008 0.0605 0.238 0.0605
1708770779.1195 0.240 0.008 0.0636 0.240 0.0636
1708770779.1271 0.240 0.008 0.0652 0.241 0.0652
1708770779.1359 0.242 0.008 0.0621 0.242 0.0621
1708770779.1437 0.244 0.009 0.0605 0.244 0.0605
1708770779.1520 0.246 0.009 0.0621 0.246 0.0621
1708770779.1596 0.247 0.009 0.0636 0.248 0.0636
1708770779.1674 0.248 0.009 0.0652 0.249 0.0652
1708770779.1751 0.250 0.009 0.0636 0.250 0.0636
1708770779.1840 0.252 0.009 0.0621 0.252 0.0621
1708770779.1918 0.254 0.009 0.0636 0.254 0.0636
1708770779.2000 0.255 0.009 0.0636 0.255 0.0636
1708770779.2077 0.256 0.009 0.0636 0.257 0.0636
1708770779.2156 0.259 0.009 0.0621 0.259 0.0621
1708770779.2236 0.260 0.010 0.0621 0.261 0.0621
1708770779.2317 0.262 0.010 0.0636 0.262 0.0636
1708770779.2397 0.263 0.010 0.0636 0.263 0.0636
1708770779.2471 0.264 0.010 0.0636 0.265 0.0636
1708770779.2556 0.266 0.010 0.0652 0.267 0.0652
1708770779.2636 0.268 0.010 0.0636 0.268 0.0636
1708770779.2712 0.269 0.010 0.0636 0.270 0.0636
1708770779.2791 0.271 0.010 0.0652 0.271 0.0652
1708770779.2888 0.272 0.010 0.0683 0.273 0.0683
1708770779.2954 0.275 0.010 0.0667 0.275 0.0667
1708770779.3041 0.276 0.011 0.0621 0.276 0.0621
1708770779.3118 0.277 0.011 0.0621 0.278 0.0621
1708770779.3195 0.278 0.011 0.0667 0.279 0.0667
1708770779.3273 0.280 0.011 0.0699 0.280 0.0699
1708770779.3360 0.282 0.011 0.0683 0.283 0.0683
1708770779.3436 0.284 0.011 0.0652 0.284 0.0652
1708770779.3511 0.285 0.011 0.0636 0.285 0.0636
1708770779.3599 0.287 0.011 0.0667 0.287 0.0667
1708770779.3675 0.288 0.011 0.0699 0.289 0.0699
1708770779.3754 0.290 0.012 0.0699 0.291 0.0699
1708770779.3841 0.292 0.012 0.0683 0.292 0.0683
1708770779.3917 0.293 0.012 0.0652 0.293 0.0652
1708770779.3991 0.294 0.012 0.0667 0.295 0.0667
1708770779.4080 0.297 0.012 0.0667 0.297 0.0667
1708770779.4156 0.298 0.012 0.0683 0.299 0.0683
1708770779.4234 0.300 0.012 0.0683 0.300 0.0683
1708770779.4312 0.301 0.012 0.0683 0.301 0.0683
1708770779.4399 0.303 0.012 0.0683 0.303 0.0683
1708770779.4473 0.305 0.013 0.0699 0.305 0.0699
1708770779.4558 0.307 0.013 0.0699 0.307 0.0699
1708770779.4634 0.307 0.013 0.0699 0.308 0.0699
1708770779.4711 0.309 0.013 0.0699 0.309 0.0699
1708770779.4792 0.311 0.013 0.0714 0.311 0.0714
1708770779.4880 0.313 0.013 0.0714 0.313 0.0714
1708770779.4958 0.314 0.013 0.0714 0.314 0.0714
1708770779.5034 0.315 0.013 0.0730 0.316 0.0730
1708770779.5111 0.317 0.013 0.0730 0.317 0.0730
1708770779.5198 0.319 0.014 0.0714 0.319 0.0714
1708770779.5276 0.321 0.014 0.0714 0.321 0.0714
1708770779.5353 0.322 0.014 0.0714 0.322 0.0714
1708770779.5431 0.323 0.014 0.0714 0.324 0.0714
1708770779.5516 0.325 0.014 0.0714 0.326 0.0714
1708770779.5591 0.327 0.014 0.0699 0.328 0.0699
1708770779.5679 0.328 0.014 0.0699 0.329 0.0699
1708770779.5757 0.329 0.014 0.0714 0.330 0.0714
1708770779.5834 0.331 0.014 0.0730 0.331 0.0730
1708770779.5912 0.333 0.015 0.0730 0.334 0.0730
1708770779.5997 0.335 0.015 0.0714 0.335 0.0714
1708770779.6071 0.336 0.015 0.0714 0.336 0.0714
1708770779.6151 0.338 0.015 0.0745 0.338 0.0745
1708770779.6240 0.339 0.015 0.0761 0.340 0.0761
1708770779.6316 0.341 0.015 0.0730 0.342 0.0730
1708770779.6395 0.343 0.015 0.0683 0.343 0.0683
1708770779.6482 0.344 0.015 0.0699 0.345 0.0699
1708770779.6558 0.346 0.015 0.0745 0.346 0.0745
1708770779.6639 0.348 0.016 0.0761 0.348 0.0761
1708770779.6716 0.349 0.016 0.0714 0.349 0.0714
1708770779.6796 0.351 0.016 0.0667 0.351 0.0667
1708770779.6874 0.352 0.016 0.0683 0.353 0.0683
1708770779.6961 0.354 0.016 0.0745 0.355 0.0745
1708770779.7034 0.355 0.016 0.0776 0.356 0.0776
1708770779.7113 0.357 0.016 0.0730 0.357 0.0730
1708770779.7201 0.359 0.016 0.0714 0.359 0.0714
1708770779.7277 0.360 0.017 0.0730 0.361 0.0730
1708770779.7355 0.362 0.017 0.0745 0.362 0.0745
1708770779.7434 0.364 0.017 0.0761 0.364 0.0761
1708770779.7517 0.365 0.017 0.0745 0.366 0.0745
1708770779.7595 0.367 0.017 0.0699 0.367 0.0699
1708770779.7673 0.369 0.017 0.0667 0.369 0.0667
1708770779.7761 0.370 0.017 0.0714 0.371 0.0714
1708770779.7837 0.372 0.017 0.0761 0.372 0.0761
1708770779.7916 0.373 0.017 0.0761 0.374 0.0761
1708770779.7991 0.375 0.018 0.0699 0.375 0.0699
1708770779.8080 0.376 0.018 0.0667 0.377 0.0667
1708770779.8158 0.378 0.018 0.0714 0.379 0.0714
1708770779.8235 0.380 0.018 0.0776 0.380 0.0776
1708770779.8313 0.381 0.018 0.0776 0.381 0.0776
1708770779.8402 0.382 0.018 0.0730 0.383 0.0730
1708770779.8478 0.385 0.018 0.0683 0.385 0.0683
1708770779.8553 0.386 0.018 0.0652 0.387 0.0652
1708770779.8642 0.387 0.018 0.0699 0.388 0.0699
1708770779.8718 0.389 0.019 0.0761 0.389 0.0761
1708770779.8795 0.390 0.019 0.0761 0.391 0.0761
1708770779.8873 0.392 0.019 0.0714 0.393 0.0714
1708770779.8960 0.394 0.019 0.0683 0.395 0.0683
1708770779.9035 0.395 0.019 0.0714 0.396 0.0714
1708770779.9113 0.397 0.019 0.0761 0.397 0.0761
1708770779.9198 0.399 0.019 0.0761 0.399 0.0761
1708770779.9276 0.400 0.019 0.0699 0.401 0.0699
1708770779.9355 0.402 0.020 0.0667 0.402 0.0667
1708770779.9434 0.403 0.020 0.0714 0.404 0.0714
1708770779.9521 0.405 0.020 0.0776 0.405 0.0776
1708770779.9600 0.406 0.020 0.0761 0.407 0.0761
1708770779.9675 0.408 0.020 0.0683 0.409 0.0683
1708770779.9755 0.410 0.020 0.0683 0.410 0.0683
1708770779.9835 0.411 0.020 0.0745 0.412 0.0745
1708770779.9914 0.412 0.020 0.0776 0.413 0.0776
1708770779.9992 0.413 0.020 0.0792 0.414 0.0792
1708770780.0083 0.415 0.021 0.0776 0.416 0.0776
1708770780.0160 0.418 0.021 0.0761 0.419 0.0761
1708770780.0239 0.420 0.021 0.0745 0.420 0.0745
1708770780.0318 0.420 0.021 0.0745 0.421 0.0745
1708770780.0396 0.421 0.021 0.0776 0.422 0.0776
1708770780.0476 0.424 0.021 0.0792 0.424 0.0792
1708770780.0561 0.426 0.021 0.0761 0.426 0.0761
1708770780.0639 0.427 0.021 0.0730 0.428 0.0730
1708770780.0721 0.428 0.022 0.0745 0.429 0.0745
1708770780.0801 0.430 0.022 0.0776 0.430 0.0776
1708770780.0878 0.432 0.022 0.0776 0.432 0.0776
1708770780.0958 0.434 0.022 0.0761 0.434 0.0761
1708770780.1034 0.435 0.022 0.0730 0.436 0.0730
1708770780.1111 0.436 0.022 0.0730 0.437 0.0730
1708770780.1200 0.438 0.022 0.0745 0.438 0.0745
1708770780.1278 0.440 0.022 0.0761 0.440 0.0761
1708770780.1354 0.442 0.023 0.0745 0.442 0.0745
1708770780.1433 0.443 0.023 0.0745 0.444 0.0745
1708770780.1520 0.444 0.023 0.0745 0.444 0.0745
1708770780.1596 0.445 0.023 0.0730 0.446 0.0730
1708770780.1675 0.448 0.023 0.0714 0.448 0.0714
1708770780.1754 0.450 0.023 0.0714 0.450 0.0714
1708770780.1831 0.451 0.023 0.0730 0.451 0.0730
1708770780.1919 0.452 0.023 0.0714 0.452 0.0714
1708770780.1995 0.453 0.023 0.0699 0.454 0.0699
1708770780.2072 0.456 0.024 0.0699 0.457 0.0699
1708770780.2151 0.458 0.024 0.0714 0.458 0.0714
1708770780.2240 0.458 0.024 0.0730 0.459 0.0730
1708770780.2317 0.460 0.024 0.0699 0.460 0.0699
1708770780.2395 0.461 0.024 0.0667 0.462 0.0667
1708770780.2474 0.464 0.024 0.0667 0.465 0.0667
1708770780.2557 0.466 0.024 0.0699 0.466 0.0699
1708770780.2636 0.466 0.024 0.0699 0.467 0.0699
1708770780.2715 0.467 0.024 0.0683 0.468 0.0683
1708770780.2792 0.469 0.024 0.0667 0.470 0.0667
1708770780.2873 0.472 0.025 0.0667 0.473 0.0667
1708770780.2962 0.473 0.025 0.0683 0.474 0.0683
1708770780.3035 0.474 0.025 0.0714 0.475 0.0714
1708770780.3115 0.476 0.025 0.0714 0.476 0.0714
1708770780.3195 0.478 0.025 0.0683 0.479 0.0683
1708770780.3271 0.480 0.025 0.0652 0.481 0.0652
1708770780.3360 0.482 0.025 0.0667 0.483 0.0667
1708770780.3440 0.482 0.025 0.0683 0.483 0.0683
1708770780.3515 0.484 0.025 0.0652 0.484 0.0652
1708770780.3594 0.486 0.026 0.0636 0.486 0.0636
1708770780.3684 0.488 0.026 0.0636 0.489 0.0636
1708770780.3750 0.489 0.026 0.0667 0.490 0.0667
1708770780.3840 0.490 0.026 0.0683 0.491 0.0683
1708770780.3919 0.492 0.026 0.0667 0.492 0.0667
1708770780.3995 0.494 0.026 0.0621 0.495 0.0621
1708770780.4078 0.496 0.026 0.0605 0.497 0.0605
1708770780.4156 0.497 0.026 0.0652 0.498 0.0652
1708770780.4233 0.498 0.026 0.0683 0.499 0.0683
1708770780.4314 0.500 0.027 0.0652 0.501 0.0652
1708770780.4395 0.501 0.027 0.0605 0.502 0.0605
1708770780.4480 0.503 0.027 0.0605 0.504 0.0605
1708770780.4560 0.505 0.027 0.0652 0.506 0.0652
1708770780.4638 0.506 0.027 0.0683 0.507 0.0683
1708770780.4715 0.508 0.027 0.0667 0.509 0.0667
1708770780.4794 0.509 0.027 0.0605 0.510 0.0605
1708770780.4873 0.511 0.027 0.0590 0.512 0.0590
1708770780.4960 0.513 0.027 0.0652 0.514 0.0652
1708770780.5042 0.514 0.027 0.0699 0.515 0.0699
1708770780.5123 0.515 0.028 0.0730 0.516 0.0730
1708770780.5193 0.517 0.028 0.0683 0.518 0.0683
1708770780.5276 0.519 0.028 0.0652 0.520 0.0652
1708770780.5356 0.521 0.028 0.0667 0.522 0.0667
1708770780.5434 0.522 0.028 0.0683 0.523 0.0683
1708770780.5511 0.523 0.028 0.0683 0.524 0.0683
1708770780.5603 0.525 0.028 0.0667 0.526 0.0667
1708770780.5674 0.527 0.028 0.0667 0.528 0.0667
1708770780.5756 0.529 0.028 0.0652 0.530 0.0652
1708770780.5837 0.530 0.029 0.0652 0.531 0.0652
1708770780.5916 0.531 0.029 0.0652 0.532 0.0652
1708770780.5992 0.533 0.029 0.0652 0.534 0.0652
1708770780.6073 0.535 0.029 0.0652 0.536 0.0652
1708770780.6152 0.537 0.029 0.0621 0.538 0.0621
1708770780.6232 0.538 0.029 0.0621 0.539 0.0621
1708770780.6321 0.539 0.029 0.0652 0.540 0.0652
1708770780.6398 0.541 0.029 0.0652 0.542 0.0652
1708770780.6477 0.544 0.029 0.0636 0.544 0.0636
1708770780.6553 0.545 0.029 0.0621 0.546 0.0621
1708770780.6631 0.546 0.030 0.0605 0.547 0.0605
1708770780.6712 0.547 0.030 0.0621 0.548 0.0621
1708770780.6793 0.549 0.030 0.0652 0.550 0.0652
1708770780.6881 0.551 0.030 0.0636 0.552 0.0636
1708770780.6953 0.554 0.030 0.0590 0.554 0.0590
1708770780.7041 0.555 0.030 0.0574 0.556 0.0574
1708770780.7120 0.556 0.030 0.0574 0.557 0.0574
1708770780.7201 0.557 0.030 0.0605 0.558 0.0605
1708770780.7290 0.560 0.030 0.0590 0.561 0.0590
1708770780.7357 0.562 0.030 0.0574 0.563 0.0574
1708770780.7437 0.563 0.031 0.0574 0.564 0.0574
1708770780.7524 0.563 0.031 0.0590 0.564 0.0590
1708770780.7601 0.565 0.031 0.0590 0.566 0.0590
1708770780.7712 0.567 0.031 0.0574 0.568 0.0574
1708770780.7765 0.569 0.031 0.0559 0.570 0.0559
1708770780.7832 0.571 0.031 0.0543 0.572 0.0543
1708770780.7913 0.571 0.031 0.0559 0.572 0.0559
1708770780.7998 0.573 0.031 0.0574 0.574 0.0574
1708770780.8075 0.574 0.031 0.0590 0.575 0.0590
1708770780.8154 0.577 0.031 0.0574 0.578 0.0574
1708770780.8240 0.579 0.031 0.0543 0.580 0.0543
1708770780.8316 0.580 0.031 0.0528 0.581 0.0528
1708770780.8392 0.581 0.032 0.0559 0.582 0.0559
1708770780.8480 0.583 0.032 0.0559 0.584 0.0559
1708770780.8551 0.584 0.032 0.0528 0.585 0.0528
1708770780.8638 0.586 0.032 0.0512 0.587 0.0512
1708770780.8726 0.587 0.032 0.0528 0.588 0.0528
1708770780.8791 0.588 0.032 0.0543 0.589 0.0543
1708770780.8879 0.590 0.032 0.0543 0.591 0.0543
1708770780.8968 0.592 0.032 0.0512 0.593 0.0512
1708770780.9041 0.593 0.032 0.0481 0.594 0.0481
1708770780.9116 0.595 0.032 0.0528 0.596 0.0528
1708770780.9204 0.596 0.032 0.0559 0.597 0.0559
1708770780.9280 0.598 0.033 0.0528 0.599 0.0528
1708770780.9357 0.600 0.033 0.0481 0.601 0.0481
1708770780.9460 0.601 0.033 0.0497 0.602 0.0497
1708770780.9522 0.603 0.033 0.0543 0.604 0.0543
1708770780.9597 0.604 0.033 0.0590 0.605 0.0590
1708770780.9687 0.606 0.033 0.0543 0.607 0.0543
1708770780.9755 0.607 0.033 0.0466 0.608 0.0466
1708770780.9833 0.609 0.033 0.0435 0.610 0.0435
1708770780.9923 0.611 0.033 0.0512 0.612 0.0512
1708770780.9993 0.612 0.033 0.0574 0.613 0.0574
1708770781.0082 0.614 0.033 0.0559 0.615 0.0559
1708770781.0164 0.615 0.033 0.0481 0.617 0.0481
1708770781.0241 0.617 0.033 0.0450 0.618 0.0450
