% Pose without folding and reset (log_20240224_131455.668/log_pose_abs.txt)
% 1 	Time (sec)
% 2,3 	Position x,y (m)
% 4 	heading (rad)
% 5 	Driven distance (m) - signed
% 6 	Turned angle (rad) - signed
1708776895.7837 0.000 0.000 0.0000 0.000 0.0000
1708776895.7909 0.000 0.000 0.0000 0.000 0.0000
1708776895.7989 0.000 0.000 0.0000 0.000 0.0000
1708776895.8070 0.000 0.000 0.0000 0.000 0.0000
1708776895.8150 0.000 0.000 0.0000 0.000 0.0000
1708776895.8230 0.000 0.000 0.0000 0.000 0.0000
1708776895.8315 0.000 0.000 0.0000 0.000 0.0000
1708776895.8389 0.000 0.000 0.0000 0.000 0.0000
1708776895.8469 0.000 0.000 0.0000 0.000 0.0000
1708776895.8551 0.000 0.000 0.0000 0.000 0.0000
1708776895.8626 0.000 0.000 0.0000 0.000 0.0000
1708776895.8711 0.000 0.000 0.0000 0.000 0.0000
1708776895.8811 0.000 0.000 0.0000 0.000 0.0000
1708776895.8881 0.000 0.000 0.0000 0.000 0.0000
1708776895.8947 0.000 0.000 0.0000 0.000 0.0000
1708776895.9029 0.000 0.000 0.0000 0.000 0.0000
1708776895.9122 0.000 0.000 0.0000 0.000 0.0000
1708776895.9194 0.000 0.000 0.0016 0.000 0.0016
1708776895.9270 0.001 0.000 0.0078 0.001 0.0078
1708776895.9397 0.004 0.000 -0.0016 0.004 -0.0016
1708776895.9428 0.006 0.000 -0.0047 0.006 -0.0047
1708776895.9511 0.008 -0.000 0.0000 0.008 0.0000
1708776895.9601 0.009 0.000 0.0031 0.009 0.0031
1708776895.9669 0.011 0.000 0.0078 0.011 0.0078
1708776895.9751 0.014 0.000 0.0124 0.014 0.0124
1708776895.9831 0.018 0.000 0.0078 0.018 0.0078
1708776895.9906 0.022 0.000 0.0047 0.022 0.0047
1708776895.9989 0.026 0.000 0.0062 0.026 0.0062
1708776896.0075 0.030 0.000 0.0109 0.030 0.0109
1708776896.0152 0.035 0.000 0.0109 0.035 0.0109
1708776896.0233 0.041 0.000 0.0093 0.041 0.0093
1708776896.0317 0.046 0.000 0.0093 0.046 0.0093
1708776896.0387 0.052 0.000 0.0093 0.052 0.0093
1708776896.0469 0.058 0.000 0.0093 0.058 0.0093
1708776896.0554 0.064 0.000 0.0078 0.064 0.0078
1708776896.0629 0.070 0.001 0.0078 0.070 0.0078
1708776896.0710 0.076 0.001 0.0047 0.076 0.0047
1708776896.0795 0.082 0.001 0.0016 0.082 0.0016
1708776896.0866 0.088 0.001 0.0016 0.088 0.0016
1708776896.0961 0.094 0.001 0.0000 0.094 0.0000
1708776896.1034 0.099 0.001 -0.0031 0.099 -0.0031
1708776896.1117 0.105 0.001 -0.0031 0.105 -0.0031
1708776896.1193 0.111 0.001 -0.0031 0.111 -0.0031
1708776896.1277 0.117 0.001 -0.0031 0.117 -0.0031
1708776896.1346 0.123 0.001 -0.0031 0.123 -0.0031
1708776896.1426 0.130 0.000 -0.0047 0.130 -0.0047
1708776896.1509 0.136 0.000 -0.0047 0.136 -0.0047
1708776896.1592 0.142 0.000 -0.0062 0.142 -0.0062
1708776896.1672 0.149 0.000 -0.0062 0.149 -0.0062
1708776896.1757 0.155 0.000 -0.0062 0.155 -0.0062
1708776896.1827 0.162 0.000 -0.0109 0.162 -0.0109
1708776896.1906 0.167 0.000 -0.0155 0.167 -0.0155
1708776896.1991 0.172 0.000 -0.0171 0.172 -0.0171
1708776896.2073 0.178 0.000 -0.0202 0.178 -0.0202
1708776896.2151 0.185 -0.000 -0.0217 0.185 -0.0217
1708776896.2234 0.191 -0.000 -0.0248 0.191 -0.0248
1708776896.2304 0.198 -0.000 -0.0279 0.198 -0.0279
1708776896.2394 0.203 -0.001 -0.0310 0.203 -0.0310
1708776896.2478 0.208 -0.001 -0.0310 0.208 -0.0310
1708776896.2557 0.214 -0.001 -0.0357 0.214 -0.0357
1708776896.2638 0.220 -0.001 -0.0388 0.220 -0.0388
1708776896.2713 0.226 -0.001 -0.0435 0.226 -0.0435
1708776896.2784 0.231 -0.002 -0.0466 0.231 -0.0466
1708776896.2871 0.236 -0.002 -0.0481 0.236 -0.0481
1708776896.2951 0.241 -0.002 -0.0497 0.241 -0.0497
1708776896.3027 0.247 -0.002 -0.0528 0.247 -0.0528
1708776896.3107 0.254 -0.003 -0.0574 0.254 -0.0574
1708776896.3281 0.259 -0.003 -0.0590 0.259 -0.0590
1708776896.3298 0.263 -0.003 -0.0574 0.263 -0.0574
1708776896.3350 0.267 -0.004 -0.0574 0.267 -0.0574
1708776896.3431 0.269 -0.004 -0.0590 0.269 -0.0590
1708776896.3514 0.272 -0.004 -0.0605 0.272 -0.0605
1708776896.3591 0.278 -0.004 -0.0636 0.278 -0.0636
1708776896.3728 0.285 -0.005 -0.0667 0.285 -0.0667
1708776896.3745 0.290 -0.005 -0.0683 0.290 -0.0683
1708776896.3830 0.294 -0.005 -0.0730 0.294 -0.0730
1708776896.3912 0.296 -0.005 -0.0745 0.296 -0.0745
1708776896.3984 0.299 -0.006 -0.0776 0.299 -0.0776
1708776896.4073 0.305 -0.006 -0.0838 0.305 -0.0838
1708776896.4154 0.310 -0.007 -0.0885 0.311 -0.0885
1708776896.4226 0.316 -0.007 -0.0900 0.316 -0.0900
1708776896.4311 0.320 -0.008 -0.0916 0.320 -0.0916
1708776896.4388 0.324 -0.008 -0.0916 0.325 -0.0916
1708776896.4469 0.329 -0.008 -0.0931 0.330 -0.0931
1708776896.4545 0.335 -0.009 -0.0978 0.336 -0.0978
1708776896.4631 0.340 -0.009 -0.1024 0.341 -0.1024
1708776896.4750 0.345 -0.010 -0.1024 0.345 -0.1024
1708776896.4856 0.350 -0.010 -0.1024 0.350 -0.1024
1708776896.4880 0.355 -0.011 -0.1024 0.356 -0.1024
1708776896.4950 0.360 -0.012 -0.1040 0.361 -0.1040
1708776896.5027 0.363 -0.012 -0.1040 0.363 -0.1040
1708776896.5108 0.366 -0.012 -0.1056 0.367 -0.1056
1708776896.5188 0.372 -0.013 -0.1133 0.372 -0.1133
1708776896.5265 0.378 -0.013 -0.1164 0.379 -0.1164
1708776896.5353 0.383 -0.014 -0.1164 0.384 -0.1164
1708776896.5426 0.388 -0.015 -0.1164 0.388 -0.1164
1708776896.5513 0.393 -0.015 -0.1164 0.393 -0.1164
1708776896.5594 0.398 -0.016 -0.1180 0.398 -0.1180
1708776896.5674 0.403 -0.016 -0.1242 0.404 -0.1242
1708776896.5751 0.408 -0.017 -0.1257 0.408 -0.1257
1708776896.5838 0.412 -0.018 -0.1211 0.413 -0.1211
1708776896.5910 0.417 -0.018 -0.1211 0.418 -0.1211
1708776896.5986 0.423 -0.019 -0.1226 0.424 -0.1226
1708776896.6076 0.428 -0.019 -0.1195 0.429 -0.1195
1708776896.6147 0.433 -0.020 -0.1118 0.434 -0.1118
1708776896.6234 0.438 -0.021 -0.1118 0.439 -0.1118
1708776896.6315 0.444 -0.021 -0.1164 0.445 -0.1164
1708776896.6392 0.450 -0.022 -0.1164 0.451 -0.1164
1708776896.6469 0.454 -0.023 -0.1102 0.455 -0.1102
1708776896.6547 0.459 -0.023 -0.1056 0.461 -0.1056
1708776896.6630 0.465 -0.024 -0.1024 0.466 -0.1024
1708776896.6707 0.471 -0.024 -0.1024 0.472 -0.1024
1708776896.6802 0.477 -0.025 -0.1024 0.478 -0.1024
1708776896.6869 0.482 -0.025 -0.0993 0.483 -0.0993
1708776896.6945 0.488 -0.026 -0.0931 0.489 -0.0931
1708776896.7035 0.493 -0.026 -0.0931 0.494 -0.0931
1708776896.7106 0.498 -0.027 -0.0931 0.499 -0.0931
1708776896.7193 0.504 -0.027 -0.0900 0.505 -0.0900
1708776896.7281 0.510 -0.028 -0.0838 0.511 -0.0838
1708776896.7347 0.516 -0.028 -0.0807 0.517 -0.0807
1708776896.7432 0.521 -0.029 -0.0807 0.523 -0.0807
1708776896.7513 0.526 -0.029 -0.0792 0.528 -0.0792
1708776896.7584 0.532 -0.030 -0.0761 0.533 -0.0761
1708776896.7671 0.538 -0.030 -0.0761 0.539 -0.0761
1708776896.7752 0.543 -0.031 -0.0730 0.545 -0.0730
1708776896.7829 0.549 -0.031 -0.0683 0.551 -0.0683
1708776896.7905 0.555 -0.031 -0.0652 0.556 -0.0652
1708776896.7997 0.560 -0.032 -0.0667 0.562 -0.0667
1708776896.8067 0.565 -0.032 -0.0683 0.567 -0.0683
1708776896.8150 0.571 -0.032 -0.0667 0.573 -0.0667
1708776896.8232 0.577 -0.033 -0.0605 0.578 -0.0605
1708776896.8311 0.582 -0.033 -0.0528 0.584 -0.0528
1708776896.8394 0.588 -0.033 -0.0528 0.590 -0.0528
1708776896.8475 0.594 -0.034 -0.0543 0.595 -0.0543
1708776896.8545 0.600 -0.034 -0.0512 0.601 -0.0512
1708776896.8633 0.605 -0.034 -0.0497 0.606 -0.0497
1708776896.8715 0.609 -0.035 -0.0466 0.611 -0.0466
1708776896.8794 0.615 -0.035 -0.0404 0.617 -0.0404
1708776896.8867 0.621 -0.035 -0.0341 0.623 -0.0341
1708776896.8948 0.627 -0.035 -0.0295 0.628 -0.0295
1708776896.9029 0.632 -0.035 -0.0279 0.633 -0.0279
1708776896.9106 0.637 -0.035 -0.0233 0.639 -0.0233
1708776896.9197 0.643 -0.036 -0.0155 0.645 -0.0155
1708776896.9266 0.649 -0.036 -0.0078 0.650 -0.0078
1708776896.9349 0.654 -0.036 -0.0016 0.656 -0.0016
1708776896.9430 0.660 -0.036 0.0031 0.661 0.0031
1708776896.9512 0.665 -0.036 0.0062 0.667 0.0062
1708776896.9588 0.671 -0.036 0.0171 0.673 0.0171
1708776896.9677 0.677 -0.035 0.0248 0.678 0.0248
1708776896.9750 0.682 -0.035 0.0279 0.684 0.0279
1708776896.9836 0.688 -0.035 0.0310 0.690 0.0310
1708776896.9917 0.694 -0.035 0.0341 0.696 0.0341
1708776896.9991 0.699 -0.035 0.0450 0.701 0.0450
1708776897.0071 0.705 -0.034 0.0528 0.706 0.0528
1708776897.0152 0.710 -0.034 0.0590 0.712 0.0590
1708776897.0224 0.716 -0.034 0.0636 0.718 0.0636
1708776897.0312 0.722 -0.033 0.0699 0.724 0.0699
1708776897.0390 0.727 -0.033 0.0776 0.729 0.0776
1708776897.0472 0.733 -0.033 0.0823 0.734 0.0823
1708776897.0550 0.739 -0.032 0.0854 0.740 0.0854
1708776897.0631 0.744 -0.032 0.0869 0.746 0.0869
1708776897.0714 0.749 -0.031 0.0916 0.751 0.0916
1708776897.0792 0.755 -0.031 0.0978 0.756 0.0978
1708776897.0870 0.761 -0.030 0.1040 0.763 0.1040
1708776897.0954 0.766 -0.029 0.1071 0.768 0.1071
1708776897.1028 0.772 -0.029 0.1102 0.773 0.1102
1708776897.1110 0.777 -0.028 0.1118 0.779 0.1118
1708776897.1193 0.783 -0.028 0.1118 0.785 0.1118
1708776897.1270 0.789 -0.027 0.1149 0.791 0.1149
1708776897.1349 0.794 -0.026 0.1195 0.796 0.1195
1708776897.1433 0.799 -0.026 0.1226 0.801 0.1226
1708776897.1509 0.805 -0.025 0.1226 0.807 0.1226
1708776897.1591 0.810 -0.024 0.1211 0.812 0.1211
1708776897.1665 0.815 -0.024 0.1226 0.818 0.1226
1708776897.1748 0.821 -0.023 0.1257 0.823 0.1257
1708776897.1837 0.827 -0.022 0.1242 0.829 0.1242
1708776897.1910 0.833 -0.022 0.1226 0.835 0.1226
1708776897.2006 0.838 -0.021 0.1257 0.841 0.1257
1708776897.2076 0.843 -0.020 0.1288 0.845 0.1288
1708776897.2148 0.849 -0.020 0.1288 0.851 0.1288
1708776897.2228 0.855 -0.019 0.1273 0.857 0.1273
1708776897.2318 0.860 -0.018 0.1242 0.862 0.1242
1708776897.2384 0.865 -0.017 0.1242 0.868 0.1242
1708776897.2473 0.871 -0.017 0.1226 0.874 0.1226
1708776897.2555 0.877 -0.016 0.1226 0.879 0.1226
1708776897.2627 0.882 -0.015 0.1226 0.885 0.1226
1708776897.2715 0.888 -0.015 0.1195 0.891 0.1195
1708776897.2796 0.893 -0.014 0.1164 0.896 0.1164
1708776897.2873 0.899 -0.013 0.1149 0.902 0.1149
1708776897.2950 0.905 -0.013 0.1133 0.908 0.1133
1708776897.3032 0.910 -0.012 0.1102 0.913 0.1102
1708776897.3104 0.916 -0.011 0.1087 0.919 0.1087
1708776897.3192 0.922 -0.011 0.1040 0.925 0.1040
1708776897.3274 0.927 -0.010 0.0993 0.930 0.0993
1708776897.3351 0.932 -0.010 0.0931 0.935 0.0931
1708776897.3428 0.938 -0.009 0.0885 0.941 0.0885
1708776897.3510 0.944 -0.009 0.0869 0.947 0.0869
1708776897.3593 0.949 -0.008 0.0854 0.952 0.0854
1708776897.3671 0.954 -0.008 0.0776 0.957 0.0776
1708776897.3751 0.960 -0.007 0.0714 0.963 0.0714
1708776897.3829 0.966 -0.007 0.0699 0.969 0.0699
1708776897.3910 0.971 -0.007 0.0667 0.974 0.0667
1708776897.3992 0.977 -0.006 0.0605 0.980 0.0605
1708776897.4064 0.982 -0.006 0.0528 0.986 0.0528
1708776897.4152 0.989 -0.006 0.0497 0.992 0.0497
1708776897.4232 0.994 -0.005 0.0481 0.997 0.0481
1708776897.4304 0.999 -0.005 0.0450 1.002 0.0450
1708776897.4388 1.005 -0.005 0.0357 1.008 0.0357
1708776897.4470 1.010 -0.005 0.0295 1.013 0.0295
1708776897.4552 1.016 -0.005 0.0295 1.019 0.0295
1708776897.4628 1.022 -0.004 0.0248 1.025 0.0248
1708776897.4709 1.027 -0.004 0.0186 1.031 0.0186
1708776897.4793 1.032 -0.004 0.0140 1.036 0.0140
1708776897.4866 1.038 -0.004 0.0093 1.041 0.0093
1708776897.4948 1.044 -0.004 0.0062 1.047 0.0062
1708776897.5031 1.050 -0.004 0.0031 1.053 0.0031
1708776897.5106 1.055 -0.004 -0.0016 1.058 -0.0016
1708776897.5189 1.061 -0.004 -0.0062 1.064 -0.0062
1708776897.5271 1.066 -0.004 -0.0109 1.070 -0.0109
1708776897.5344 1.072 -0.004 -0.0155 1.075 -0.0155
1708776897.5437 1.077 -0.004 -0.0186 1.080 -0.0186
1708776897.5517 1.082 -0.004 -0.0217 1.085 -0.0217
1708776897.5594 1.088 -0.005 -0.0217 1.091 -0.0217
1708776897.5676 1.094 -0.005 -0.0264 1.097 -0.0264
1708776897.5747 1.100 -0.005 -0.0326 1.103 -0.0326
1708776897.5831 1.105 -0.005 -0.0373 1.108 -0.0373
1708776897.5913 1.110 -0.005 -0.0357 1.113 -0.0357
1708776897.5994 1.115 -0.005 -0.0388 1.119 -0.0388
1708776897.6071 1.122 -0.006 -0.0466 1.125 -0.0466
1708776897.6153 1.127 -0.006 -0.0497 1.130 -0.0497
1708776897.6225 1.132 -0.006 -0.0528 1.135 -0.0528
1708776897.6312 1.137 -0.006 -0.0543 1.140 -0.0543
1708776897.6390 1.143 -0.007 -0.0559 1.146 -0.0559
1708776897.6471 1.149 -0.007 -0.0621 1.152 -0.0621
1708776897.6549 1.155 -0.008 -0.0699 1.158 -0.0699
1708776897.6630 1.160 -0.008 -0.0714 1.163 -0.0714
1708776897.6713 1.165 -0.008 -0.0699 1.168 -0.0699
1708776897.6792 1.171 -0.009 -0.0699 1.174 -0.0699
1708776897.6867 1.177 -0.009 -0.0761 1.180 -0.0761
1708776897.6950 1.182 -0.010 -0.0807 1.186 -0.0807
1708776897.7026 1.187 -0.010 -0.0838 1.190 -0.0838
1708776897.7108 1.193 -0.010 -0.0854 1.196 -0.0854
1708776897.7191 1.199 -0.011 -0.0854 1.203 -0.0854
1708776897.7278 1.205 -0.011 -0.0900 1.208 -0.0900
1708776897.7360 1.210 -0.012 -0.0931 1.213 -0.0931
1708776897.7432 1.216 -0.012 -0.0962 1.219 -0.0962
1708776897.7508 1.222 -0.013 -0.0978 1.225 -0.0978
1708776897.7590 1.227 -0.014 -0.0962 1.230 -0.0962
1708776897.7672 1.232 -0.014 -0.0962 1.236 -0.0962
1708776897.7749 1.238 -0.015 -0.1024 1.241 -0.1024
1708776897.7836 1.244 -0.015 -0.1071 1.248 -0.1071
1708776897.7908 1.250 -0.016 -0.1087 1.253 -0.1087
1708776897.7985 1.255 -0.016 -0.1087 1.259 -0.1087
1708776897.8078 1.260 -0.017 -0.1102 1.264 -0.1102
1708776897.8149 1.266 -0.018 -0.1133 1.269 -0.1133
1708776897.8224 1.272 -0.018 -0.1195 1.275 -0.1195
1708776897.8317 1.277 -0.019 -0.1211 1.281 -0.1211
1708776897.8394 1.282 -0.020 -0.1211 1.285 -0.1211
1708776897.8472 1.287 -0.020 -0.1242 1.291 -0.1242
1708776897.8554 1.294 -0.021 -0.1273 1.298 -0.1273
1708776897.8642 1.300 -0.022 -0.1319 1.304 -0.1319
1708776897.8707 1.305 -0.023 -0.1366 1.309 -0.1366
1708776897.8789 1.310 -0.023 -0.1397 1.314 -0.1397
1708776897.8867 1.314 -0.024 -0.1413 1.318 -0.1413
1708776897.8945 1.320 -0.025 -0.1444 1.324 -0.1444
1708776897.9037 1.326 -0.026 -0.1475 1.330 -0.1475
1708776897.9118 1.332 -0.026 -0.1506 1.336 -0.1506
1708776897.9184 1.337 -0.027 -0.1552 1.342 -0.1552
1708776897.9277 1.343 -0.028 -0.1630 1.348 -0.1630
1708776897.9346 1.348 -0.029 -0.1676 1.352 -0.1676
1708776897.9453 1.353 -0.030 -0.1723 1.358 -0.1723
1708776897.9514 1.359 -0.031 -0.1785 1.364 -0.1785
1708776897.9586 1.365 -0.032 -0.1847 1.369 -0.1847
1708776897.9674 1.369 -0.033 -0.1863 1.374 -0.1863
1708776897.9757 1.373 -0.034 -0.1909 1.378 -0.1909
1708776897.9829 1.378 -0.035 -0.1971 1.383 -0.1971
1708776897.9908 1.384 -0.036 -0.2018 1.389 -0.2018
1708776897.9994 1.390 -0.037 -0.2111 1.395 -0.2111
1708776898.0069 1.395 -0.038 -0.2173 1.401 -0.2173
1708776898.0151 1.400 -0.039 -0.2235 1.406 -0.2235
1708776898.0235 1.405 -0.040 -0.2328 1.411 -0.2328
1708776898.0310 1.411 -0.042 -0.2406 1.417 -0.2406
1708776898.0387 1.416 -0.043 -0.2468 1.422 -0.2468
1708776898.0470 1.422 -0.045 -0.2546 1.428 -0.2546
1708776898.0552 1.427 -0.046 -0.2639 1.433 -0.2639
1708776898.0630 1.432 -0.047 -0.2747 1.438 -0.2747
1708776898.0714 1.437 -0.049 -0.2841 1.444 -0.2841
1708776898.0794 1.443 -0.050 -0.2918 1.450 -0.2918
1708776898.0869 1.448 -0.052 -0.3042 1.455 -0.3042
1708776898.0952 1.453 -0.054 -0.3182 1.461 -0.3182
1708776898.1029 1.458 -0.055 -0.3291 1.466 -0.3291
1708776898.1107 1.464 -0.057 -0.3415 1.472 -0.3415
1708776898.1192 1.469 -0.059 -0.3555 1.478 -0.3555
1708776898.1264 1.474 -0.061 -0.3694 1.483 -0.3694
1708776898.1350 1.479 -0.063 -0.3834 1.489 -0.3834
1708776898.1432 1.485 -0.066 -0.3958 1.495 -0.3958
1708776898.1506 1.491 -0.068 -0.4113 1.501 -0.4113
1708776898.1585 1.496 -0.070 -0.4253 1.507 -0.4253
1708776898.1678 1.501 -0.072 -0.4393 1.512 -0.4393
1708776898.1748 1.505 -0.075 -0.4564 1.517 -0.4564
1708776898.1832 1.511 -0.077 -0.4734 1.523 -0.4734
1708776898.1916 1.516 -0.080 -0.4859 1.529 -0.4859
1708776898.1988 1.521 -0.083 -0.4998 1.534 -0.4998
1708776898.2069 1.525 -0.085 -0.5169 1.540 -0.5169
1708776898.2152 1.530 -0.088 -0.5309 1.545 -0.5309
1708776898.2225 1.535 -0.091 -0.5433 1.551 -0.5433
1708776898.2310 1.540 -0.094 -0.5588 1.557 -0.5588
1708776898.2400 1.544 -0.097 -0.5728 1.562 -0.5728
1708776898.2472 1.549 -0.100 -0.5883 1.567 -0.5883
1708776898.2550 1.554 -0.103 -0.6054 1.574 -0.6054
1708776898.2633 1.559 -0.106 -0.6178 1.579 -0.6178
1708776898.2715 1.563 -0.109 -0.6271 1.584 -0.6271
1708776898.2793 1.567 -0.113 -0.6426 1.590 -0.6426
1708776898.2873 1.572 -0.116 -0.6644 1.596 -0.6644
1708776898.2945 1.576 -0.120 -0.6783 1.601 -0.6783
1708776898.3035 1.580 -0.123 -0.6892 1.606 -0.6892
1708776898.3116 1.584 -0.126 -0.7032 1.611 -0.7032
1708776898.3187 1.589 -0.130 -0.7202 1.617 -0.7202
1708776898.3266 1.593 -0.134 -0.7373 1.624 -0.7373
1708776898.3353 1.597 -0.138 -0.7528 1.629 -0.7528
1708776898.3429 1.601 -0.142 -0.7637 1.634 -0.7637
1708776898.3509 1.605 -0.145 -0.7761 1.640 -0.7761
1708776898.3593 1.609 -0.150 -0.7932 1.646 -0.7932
1708776898.3665 1.613 -0.153 -0.8087 1.651 -0.8087
1708776898.3744 1.617 -0.157 -0.8227 1.656 -0.8227
1708776898.3835 1.620 -0.161 -0.8336 1.662 -0.8336
1708776898.3908 1.624 -0.166 -0.8460 1.667 -0.8460
1708776898.3988 1.628 -0.170 -0.8631 1.674 -0.8631
1708776898.4073 1.632 -0.174 -0.8786 1.679 -0.8786
1708776898.4146 1.635 -0.178 -0.8894 1.684 -0.8894
1708776898.4224 1.638 -0.183 -0.9034 1.689 -0.9034
1708776898.4317 1.642 -0.187 -0.9158 1.695 -0.9158
1708776898.4387 1.645 -0.192 -0.9298 1.701 -0.9298
1708776898.4466 1.649 -0.196 -0.9422 1.707 -0.9422
1708776898.4557 1.652 -0.200 -0.9531 1.712 -0.9531
1708776898.4629 1.654 -0.205 -0.9671 1.717 -0.9671
1708776898.4708 1.658 -0.210 -0.9795 1.723 -0.9795
1708776898.4791 1.661 -0.215 -0.9888 1.729 -0.9888
1708776898.4872 1.664 -0.219 -1.0012 1.734 -1.0012
1708776898.4951 1.667 -0.223 -1.0152 1.739 -1.0152
1708776898.5037 1.670 -0.228 -1.0323 1.745 -1.0322
1708776898.5111 1.673 -0.234 -1.0447 1.752 -1.0447
1708776898.5192 1.676 -0.239 -1.0555 1.757 -1.0555
1708776898.5274 1.678 -0.243 -1.0648 1.762 -1.0648
1708776898.5353 1.681 -0.248 -1.0773 1.768 -1.0773
1708776898.5430 1.684 -0.253 -1.0959 1.774 -1.0959
1708776898.5512 1.686 -0.258 -1.1099 1.779 -1.1099
1708776898.5586 1.689 -0.263 -1.1207 1.785 -1.1207
1708776898.5664 1.691 -0.268 -1.1316 1.790 -1.1316
1708776898.5757 1.693 -0.273 -1.1440 1.796 -1.1440
1708776898.5835 1.696 -0.278 -1.1580 1.801 -1.1580
1708776898.5912 1.698 -0.284 -1.1704 1.808 -1.1704
1708776898.5995 1.700 -0.289 -1.1828 1.813 -1.1828
1708776898.6067 1.702 -0.294 -1.1952 1.818 -1.1952
1708776898.6146 1.704 -0.299 -1.2046 1.824 -1.2045
1708776898.6239 1.706 -0.304 -1.2185 1.829 -1.2185
1708776898.6312 1.708 -0.309 -1.2325 1.834 -1.2325
1708776898.6387 1.710 -0.314 -1.2434 1.840 -1.2434
1708776898.6481 1.711 -0.320 -1.2511 1.846 -1.2511
1708776898.6545 1.713 -0.324 -1.2604 1.851 -1.2604
1708776898.6629 1.715 -0.329 -1.2713 1.856 -1.2713
1708776898.6711 1.716 -0.335 -1.2837 1.861 -1.2837
1708776898.6792 1.718 -0.340 -1.2946 1.867 -1.2946
1708776898.6868 1.719 -0.346 -1.3039 1.873 -1.3039
1708776898.6951 1.721 -0.351 -1.3132 1.879 -1.3132
1708776898.7034 1.722 -0.356 -1.3241 1.884 -1.3241
1708776898.7112 1.723 -0.362 -1.3334 1.890 -1.3334
1708776898.7198 1.725 -0.368 -1.3443 1.896 -1.3443
1708776898.7277 1.726 -0.373 -1.3536 1.901 -1.3536
1708776898.7352 1.727 -0.379 -1.3629 1.907 -1.3629
1708776898.7434 1.728 -0.384 -1.3722 1.912 -1.3722
1708776898.7507 1.729 -0.389 -1.3769 1.917 -1.3769
1708776898.7586 1.730 -0.394 -1.3846 1.923 -1.3846
1708776898.7678 1.731 -0.400 -1.3939 1.929 -1.3939
1708776898.7751 1.732 -0.406 -1.4001 1.934 -1.4001
1708776898.7837 1.733 -0.411 -1.4048 1.940 -1.4048
1708776898.7920 1.734 -0.417 -1.4110 1.946 -1.4110
1708776898.7992 1.735 -0.423 -1.4172 1.951 -1.4172
1708776898.8071 1.736 -0.428 -1.4250 1.957 -1.4250
1708776898.8153 1.737 -0.434 -1.4312 1.963 -1.4312
1708776898.8226 1.737 -0.438 -1.4343 1.967 -1.4343
1708776898.8307 1.738 -0.444 -1.4389 1.973 -1.4389
1708776898.8399 1.739 -0.450 -1.4436 1.979 -1.4436
1708776898.8473 1.740 -0.455 -1.4514 1.985 -1.4514
1708776898.8551 1.740 -0.461 -1.4560 1.990 -1.4560
1708776898.8634 1.741 -0.467 -1.4576 1.996 -1.4576
1708776898.8708 1.742 -0.472 -1.4607 2.001 -1.4607
1708776898.8791 1.742 -0.478 -1.4669 2.007 -1.4669
1708776898.8874 1.743 -0.483 -1.4715 2.013 -1.4715
1708776898.8948 1.743 -0.489 -1.4731 2.018 -1.4731
1708776898.9028 1.744 -0.494 -1.4762 2.024 -1.4762
1708776898.9113 1.744 -0.500 -1.4824 2.030 -1.4824
1708776898.9189 1.745 -0.506 -1.4902 2.035 -1.4902
