% Pose without folding and reset (log_20240224_123533.945/log_pose_abs.txt)
% 1 	Time (sec)
% 2,3 	Position x,y (m)
% 4 	heading (rad)
% 5 	Driven distance (m) - signed
% 6 	Turned angle (rad) - signed
1708774534.9191 0.000 0.000 0.0000 0.000 0.0000
1708774534.9270 0.000 0.000 0.0000 0.000 0.0000
1708774534.9352 0.002 -0.000 -0.0016 0.002 -0.0016
1708774534.9424 0.003 -0.000 -0.0000 0.003 -0.0000
1708774534.9500 0.004 -0.000 0.0016 0.004 0.0016
1708774534.9586 0.005 -0.000 -0.0000 0.005 -0.0000
1708774534.9662 0.006 -0.000 -0.0016 0.006 -0.0016
1708774534.9747 0.008 -0.000 -0.0016 0.008 -0.0016
1708774534.9826 0.009 -0.000 0.0031 0.009 0.0031
1708774534.9902 0.011 -0.000 0.0016 0.011 0.0016
1708774534.9987 0.012 -0.000 0.0000 0.012 0.0000
1708774535.0062 0.015 -0.000 -0.0016 0.015 -0.0016
1708774535.0138 0.016 -0.000 -0.0016 0.016 -0.0016
1708774535.0224 0.018 -0.000 -0.0000 0.018 -0.0000
1708774535.0304 0.020 -0.000 0.0016 0.020 0.0016
1708774535.0379 0.022 -0.000 -0.0000 0.022 -0.0000
1708774535.0465 0.024 -0.000 -0.0000 0.024 -0.0000
1708774535.0541 0.026 -0.000 0.0016 0.026 0.0016
1708774535.0627 0.028 -0.000 -0.0000 0.028 -0.0000
1708774535.0702 0.030 -0.000 -0.0031 0.030 -0.0031
1708774535.0782 0.032 -0.000 -0.0031 0.032 -0.0031
1708774535.0857 0.035 -0.000 -0.0016 0.035 -0.0016
1708774535.0942 0.037 -0.000 0.0000 0.037 0.0000
1708774535.1018 0.039 -0.000 -0.0016 0.039 -0.0016
1708774535.1105 0.041 -0.000 -0.0016 0.041 -0.0016
1708774535.1177 0.044 -0.000 0.0016 0.044 0.0016
1708774535.1259 0.046 -0.000 0.0031 0.046 0.0031
1708774535.1346 0.048 -0.000 0.0000 0.048 0.0000
1708774535.1420 0.050 -0.000 -0.0016 0.050 -0.0016
1708774535.1507 0.053 -0.000 -0.0016 0.053 -0.0016
1708774535.1583 0.055 -0.000 0.0016 0.055 0.0016
1708774535.1666 0.057 -0.000 0.0000 0.057 -0.0000
1708774535.1742 0.059 -0.000 -0.0016 0.059 -0.0016
1708774535.1824 0.062 -0.000 -0.0031 0.062 -0.0031
1708774535.1899 0.065 -0.000 -0.0031 0.065 -0.0031
1708774535.1985 0.066 -0.000 0.0000 0.066 0.0000
1708774535.2070 0.068 -0.000 0.0000 0.068 0.0000
1708774535.2145 0.071 -0.000 -0.0016 0.071 -0.0016
1708774535.2221 0.074 -0.000 -0.0031 0.074 -0.0031
1708774535.2303 0.076 -0.000 -0.0016 0.076 -0.0016
1708774535.2378 0.078 -0.000 0.0000 0.078 0.0000
1708774535.2464 0.080 -0.000 0.0000 0.080 0.0000
1708774535.2538 0.083 -0.000 -0.0016 0.083 -0.0016
1708774535.2623 0.086 -0.000 -0.0016 0.086 -0.0016
1708774535.2699 0.088 -0.000 0.0000 0.088 0.0000
1708774535.2782 0.090 -0.000 0.0031 0.090 0.0031
1708774535.2867 0.092 -0.000 0.0016 0.092 0.0016
1708774535.2943 0.095 -0.000 0.0000 0.095 0.0000
1708774535.3017 0.098 -0.000 -0.0016 0.098 -0.0016
1708774535.3102 0.100 -0.000 0.0000 0.100 0.0000
1708774535.3178 0.102 -0.000 0.0016 0.102 0.0016
1708774535.3260 0.104 -0.000 0.0000 0.104 0.0000
1708774535.3342 0.107 -0.000 -0.0016 0.107 -0.0016
1708774535.3426 0.110 -0.000 0.0016 0.110 0.0016
1708774535.3502 0.112 -0.000 0.0016 0.112 0.0016
1708774535.3587 0.114 -0.000 0.0031 0.114 0.0031
1708774535.3663 0.116 -0.000 0.0031 0.116 0.0031
1708774535.3739 0.119 -0.000 0.0031 0.119 0.0031
1708774535.3820 0.121 -0.000 0.0031 0.121 0.0031
1708774535.3904 0.124 -0.000 0.0031 0.124 0.0031
1708774535.3980 0.126 -0.000 0.0031 0.126 0.0031
1708774535.4066 0.128 -0.000 0.0016 0.128 0.0016
1708774535.4142 0.131 0.000 0.0016 0.131 0.0016
1708774535.4218 0.134 0.000 0.0016 0.134 0.0016
1708774535.4299 0.136 0.000 0.0031 0.136 0.0031
1708774535.4384 0.138 0.000 0.0031 0.138 0.0031
1708774535.4460 0.140 0.000 0.0016 0.140 0.0016
1708774535.4546 0.143 0.000 0.0000 0.143 0.0000
1708774535.4622 0.145 0.000 -0.0016 0.145 -0.0016
1708774535.4697 0.147 0.000 0.0000 0.147 0.0000
1708774535.4787 0.149 0.000 0.0000 0.149 0.0000
1708774535.4863 0.152 0.000 0.0000 0.152 0.0000
1708774535.4939 0.155 0.000 0.0000 0.155 0.0000
1708774535.5024 0.157 0.000 0.0000 0.157 0.0000
1708774535.5100 0.159 0.000 0.0016 0.159 0.0016
1708774535.5187 0.162 0.000 0.0016 0.162 0.0016
1708774535.5266 0.164 0.000 0.0000 0.164 0.0000
1708774535.5341 0.167 0.000 -0.0031 0.167 -0.0031
1708774535.5427 0.170 0.000 -0.0016 0.170 -0.0016
1708774535.5502 0.171 0.000 0.0000 0.171 0.0000
1708774535.5578 0.173 0.000 -0.0016 0.173 -0.0016
1708774535.5662 0.176 0.000 -0.0031 0.176 -0.0031
1708774535.5737 0.179 0.000 -0.0016 0.179 -0.0016
1708774535.5820 0.181 0.000 0.0016 0.181 0.0016
1708774535.5907 0.183 0.000 0.0031 0.183 0.0031
1708774535.5981 0.185 0.000 0.0000 0.185 0.0000
1708774535.6057 0.188 0.000 0.0000 0.188 0.0000
1708774535.6142 0.191 0.000 -0.0031 0.191 -0.0031
1708774535.6217 0.193 -0.000 -0.0016 0.193 -0.0016
1708774535.6299 0.195 -0.000 -0.0016 0.195 -0.0016
1708774535.6386 0.197 -0.000 0.0000 0.197 0.0000
1708774535.6461 0.200 -0.000 -0.0016 0.200 -0.0016
1708774535.6537 0.203 -0.000 -0.0031 0.203 -0.0031
1708774535.6622 0.205 -0.000 -0.0016 0.205 -0.0016
1708774535.6697 0.207 -0.000 0.0000 0.207 0.0000
1708774535.6779 0.209 -0.000 0.0000 0.209 0.0000
1708774535.6866 0.212 -0.000 0.0000 0.212 0.0000
1708774535.6940 0.215 -0.000 0.0000 0.215 0.0000
1708774535.7025 0.217 -0.000 0.0000 0.217 0.0000
1708774535.7101 0.219 -0.000 0.0000 0.219 0.0000
1708774535.7186 0.222 -0.000 0.0016 0.222 0.0016
1708774535.7258 0.224 -0.000 0.0016 0.224 0.0016
1708774535.7345 0.227 -0.000 0.0000 0.227 0.0000
1708774535.7420 0.229 -0.000 0.0016 0.229 0.0016
1708774535.7505 0.231 -0.000 0.0000 0.231 0.0000
1708774535.7581 0.233 -0.000 -0.0062 0.233 -0.0062
1708774535.7667 0.235 -0.000 -0.0124 0.235 -0.0124
1708774535.7743 0.237 -0.000 -0.0155 0.237 -0.0155
1708774535.7826 0.239 -0.000 -0.0171 0.239 -0.0171
1708774535.7901 0.240 -0.000 -0.0202 0.240 -0.0202
1708774535.7985 0.243 -0.000 -0.0233 0.243 -0.0233
1708774535.8061 0.245 -0.000 -0.0264 0.245 -0.0264
1708774535.8147 0.246 -0.000 -0.0217 0.246 -0.0217
1708774535.8222 0.248 -0.000 -0.0171 0.248 -0.0171
1708774535.8313 0.249 -0.000 -0.0155 0.249 -0.0155
1708774535.8386 0.251 -0.000 -0.0124 0.251 -0.0124
1708774535.8462 0.253 -0.000 -0.0093 0.253 -0.0093
1708774535.8538 0.255 -0.000 -0.0062 0.255 -0.0062
1708774535.8624 0.256 -0.000 -0.0047 0.256 -0.0047
1708774535.8700 0.258 -0.000 0.0000 0.258 0.0000
1708774535.8783 0.261 -0.000 0.0000 0.261 0.0000
1708774535.8866 0.263 -0.000 0.0016 0.263 0.0016
1708774535.8942 0.265 -0.000 0.0031 0.265 0.0031
1708774535.9018 0.268 -0.000 0.0047 0.268 0.0047
1708774535.9104 0.270 -0.000 0.0016 0.270 0.0016
1708774535.9180 0.273 -0.000 0.0016 0.273 0.0016
1708774535.9262 0.275 -0.000 0.0016 0.275 0.0016
1708774535.9346 0.278 -0.000 0.0016 0.278 0.0016
1708774535.9421 0.280 -0.000 0.0000 0.280 0.0000
1708774535.9497 0.283 -0.000 -0.0016 0.283 -0.0016
1708774535.9583 0.285 -0.000 -0.0016 0.285 -0.0016
1708774535.9659 0.288 -0.000 -0.0031 0.288 -0.0031
1708774535.9744 0.290 -0.000 -0.0062 0.290 -0.0062
1708774535.9825 0.293 -0.000 -0.0062 0.293 -0.0062
1708774535.9902 0.295 -0.000 -0.0062 0.295 -0.0062
1708774535.9979 0.298 -0.000 -0.0062 0.298 -0.0062
1708774536.0064 0.300 -0.000 -0.0047 0.300 -0.0047
1708774536.0140 0.303 -0.000 -0.0047 0.303 -0.0047
1708774536.0224 0.306 -0.000 -0.0031 0.306 -0.0031
1708774536.0306 0.308 -0.000 -0.0031 0.308 -0.0031
1708774536.0382 0.311 -0.000 -0.0016 0.311 -0.0016
1708774536.0459 0.313 -0.000 0.0000 0.313 0.0000
1708774536.0545 0.315 -0.000 0.0000 0.315 0.0000
1708774536.0623 0.318 -0.000 0.0031 0.318 0.0031
1708774536.0701 0.321 -0.000 0.0062 0.321 0.0062
1708774536.0783 0.323 -0.000 0.0062 0.323 0.0062
1708774536.0860 0.325 -0.000 0.0062 0.325 0.0062
1708774536.0947 0.328 -0.000 0.0078 0.328 0.0078
1708774536.1021 0.330 -0.000 0.0093 0.330 0.0093
1708774536.1107 0.333 -0.000 0.0093 0.333 0.0093
1708774536.1183 0.336 -0.000 0.0109 0.336 0.0109
1708774536.1264 0.338 -0.000 0.0109 0.338 0.0109
1708774536.1340 0.340 -0.000 0.0109 0.340 0.0109
1708774536.1427 0.342 -0.000 0.0124 0.342 0.0124
1708774536.1502 0.345 -0.000 0.0140 0.345 0.0140
1708774536.1587 0.347 -0.000 0.0155 0.347 0.0155
1708774536.1664 0.350 -0.000 0.0171 0.350 0.0171
1708774536.1739 0.352 -0.000 0.0202 0.352 0.0202
1708774536.1821 0.355 -0.000 0.0217 0.355 0.0217
1708774536.1898 0.357 0.000 0.0217 0.357 0.0217
1708774536.1982 0.360 0.000 0.0233 0.360 0.0233
1708774536.2058 0.362 0.000 0.0264 0.362 0.0264
1708774536.2145 0.365 0.000 0.0279 0.365 0.0279
1708774536.2220 0.367 0.000 0.0264 0.367 0.0264
1708774536.2303 0.369 0.000 0.0264 0.369 0.0264
1708774536.2379 0.372 0.000 0.0248 0.372 0.0248
1708774536.2463 0.374 0.000 0.0279 0.374 0.0279
1708774536.2539 0.377 0.001 0.0264 0.377 0.0264
1708774536.2625 0.379 0.001 0.0217 0.379 0.0217
1708774536.2700 0.382 0.001 0.0155 0.382 0.0155
1708774536.2783 0.385 0.001 0.0093 0.385 0.0093
1708774536.2859 0.388 0.001 0.0078 0.388 0.0078
1708774536.2942 0.391 0.001 0.0062 0.391 0.0062
1708774536.3018 0.393 0.001 0.0047 0.393 0.0047
1708774536.3105 0.395 0.001 0.0016 0.395 0.0016
1708774536.3180 0.398 0.001 -0.0016 0.399 -0.0016
1708774536.3262 0.402 0.001 -0.0031 0.402 -0.0031
1708774536.3343 0.404 0.001 -0.0031 0.404 -0.0031
1708774536.3418 0.406 0.001 -0.0047 0.406 -0.0047
1708774536.3505 0.409 0.001 -0.0078 0.409 -0.0078
1708774536.3581 0.412 0.001 -0.0078 0.412 -0.0078
1708774536.3667 0.414 0.001 -0.0062 0.414 -0.0062
1708774536.3744 0.417 0.001 -0.0047 0.417 -0.0047
1708774536.3825 0.419 0.001 -0.0078 0.419 -0.0078
1708774536.3899 0.421 0.001 -0.0124 0.421 -0.0124
1708774536.3986 0.424 0.001 -0.0124 0.424 -0.0124
1708774536.4062 0.427 0.001 -0.0062 0.427 -0.0062
1708774536.4137 0.429 0.001 -0.0047 0.429 -0.0047
1708774536.4221 0.431 0.001 -0.0093 0.432 -0.0093
1708774536.4304 0.434 0.000 -0.0124 0.434 -0.0124
1708774536.4379 0.436 0.000 -0.0109 0.436 -0.0109
1708774536.4466 0.439 0.000 -0.0062 0.439 -0.0062
1708774536.4542 0.441 0.000 -0.0062 0.441 -0.0062
1708774536.4617 0.444 0.000 -0.0078 0.444 -0.0078
1708774536.4701 0.446 0.000 -0.0093 0.446 -0.0093
1708774536.4784 0.448 0.000 -0.0078 0.448 -0.0078
1708774536.4859 0.450 0.000 -0.0062 0.450 -0.0062
1708774536.4946 0.453 0.000 -0.0062 0.453 -0.0062
1708774536.5022 0.456 0.000 -0.0078 0.456 -0.0078
1708774536.5097 0.458 0.000 -0.0062 0.458 -0.0062
1708774536.5182 0.460 0.000 -0.0062 0.460 -0.0062
1708774536.5265 0.462 0.000 -0.0062 0.462 -0.0062
1708774536.5340 0.465 0.000 -0.0062 0.465 -0.0062
1708774536.5427 0.468 0.000 -0.0047 0.468 -0.0047
1708774536.5503 0.470 0.000 -0.0031 0.470 -0.0031
1708774536.5587 0.472 0.000 -0.0016 0.472 -0.0016
1708774536.5663 0.475 0.000 -0.0031 0.475 -0.0031
1708774536.5739 0.477 0.000 -0.0016 0.477 -0.0016
1708774536.5820 0.480 0.000 0.0000 0.480 -0.0000
1708774536.5907 0.482 0.000 0.0000 0.482 -0.0000
1708774536.5983 0.484 0.000 -0.0031 0.484 -0.0031
1708774536.6067 0.487 0.000 -0.0047 0.487 -0.0047
1708774536.6144 0.490 0.000 -0.0031 0.490 -0.0031
1708774536.6220 0.492 0.000 0.0016 0.492 0.0016
1708774536.6301 0.494 0.000 0.0016 0.494 0.0016
1708774536.6377 0.496 0.000 -0.0031 0.496 -0.0031
1708774536.6464 0.499 0.000 -0.0047 0.499 -0.0047
1708774536.6537 0.501 0.000 -0.0016 0.501 -0.0016
1708774536.6624 0.504 0.000 0.0016 0.504 0.0016
1708774536.6701 0.506 0.000 0.0000 0.506 0.0000
1708774536.6782 0.508 0.000 -0.0031 0.508 -0.0031
1708774536.6858 0.511 0.000 -0.0031 0.511 -0.0031
1708774536.6942 0.513 0.000 0.0000 0.513 0.0000
1708774536.7017 0.515 0.000 0.0016 0.515 0.0016
1708774536.7104 0.518 0.000 0.0016 0.518 0.0016
1708774536.7180 0.521 0.000 -0.0031 0.521 -0.0031
1708774536.7262 0.523 0.000 -0.0031 0.523 -0.0031
1708774536.7338 0.525 0.000 0.0016 0.525 0.0016
1708774536.7423 0.527 0.000 0.0047 0.528 0.0047
1708774536.7498 0.530 0.000 0.0000 0.530 -0.0000
1708774536.7584 0.532 0.000 -0.0016 0.532 -0.0016
1708774536.7661 0.535 0.000 0.0000 0.535 -0.0000
1708774536.7746 0.537 0.000 0.0031 0.537 0.0031
1708774536.7817 0.540 0.000 0.0031 0.540 0.0031
1708774536.7904 0.542 0.000 -0.0016 0.542 -0.0016
1708774536.7979 0.544 0.000 -0.0047 0.544 -0.0047
1708774536.8065 0.547 0.000 0.0000 0.547 -0.0000
1708774536.8141 0.549 0.000 0.0062 0.549 0.0062
1708774536.8227 0.551 0.000 0.0062 0.551 0.0062
1708774536.8314 0.554 0.000 0.0000 0.554 -0.0000
1708774536.8379 0.556 0.000 -0.0031 0.556 -0.0031
1708774536.8465 0.558 0.000 -0.0016 0.558 -0.0016
1708774536.8541 0.561 0.000 0.0016 0.561 0.0016
1708774536.8617 0.563 0.000 0.0047 0.563 0.0047
1708774536.8702 0.566 0.000 0.0031 0.566 0.0031
1708774536.8783 0.568 0.000 0.0000 0.568 -0.0000
1708774536.8859 0.571 0.000 0.0000 0.571 -0.0000
1708774536.8944 0.573 0.000 0.0016 0.573 0.0016
1708774536.9018 0.575 0.000 0.0031 0.575 0.0031
1708774536.9109 0.577 0.000 -0.0016 0.577 -0.0016
1708774536.9185 0.580 0.000 -0.0047 0.580 -0.0047
1708774536.9265 0.582 0.000 -0.0062 0.582 -0.0062
1708774536.9346 0.585 0.000 -0.0031 0.585 -0.0031
1708774536.9417 0.587 0.000 0.0000 0.587 -0.0000
1708774536.9498 0.590 0.000 0.0000 0.590 -0.0000
1708774536.9588 0.592 0.000 -0.0031 0.592 -0.0031
1708774536.9663 0.594 0.000 -0.0031 0.594 -0.0031
1708774536.9743 0.597 0.000 -0.0031 0.597 -0.0031
1708774536.9824 0.599 0.000 -0.0031 0.599 -0.0031
1708774536.9907 0.601 0.000 0.0000 0.601 -0.0000
1708774536.9987 0.604 0.000 -0.0016 0.604 -0.0016
1708774537.0063 0.607 0.000 0.0000 0.607 -0.0000
1708774537.0147 0.609 0.000 0.0016 0.609 0.0016
1708774537.0222 0.611 0.000 0.0016 0.611 0.0016
1708774537.0305 0.613 0.000 -0.0016 0.614 -0.0016
1708774537.0380 0.616 0.000 -0.0031 0.616 -0.0031
1708774537.0467 0.618 0.000 -0.0016 0.618 -0.0016
1708774537.0541 0.621 0.000 0.0016 0.621 0.0016
1708774537.0627 0.623 0.000 0.0016 0.623 0.0016
1708774537.0703 0.625 0.000 -0.0031 0.625 -0.0031
1708774537.0785 0.628 0.000 -0.0047 0.628 -0.0047
1708774537.0861 0.630 0.000 -0.0016 0.630 -0.0016
1708774537.0947 0.633 0.000 0.0016 0.633 0.0016
1708774537.1021 0.635 0.000 0.0000 0.635 -0.0000
1708774537.1107 0.637 0.000 -0.0031 0.637 -0.0031
1708774537.1182 0.640 0.000 -0.0031 0.640 -0.0031
1708774537.1264 0.643 0.000 0.0000 0.643 -0.0000
1708774537.1339 0.645 0.000 0.0016 0.645 0.0016
1708774537.1423 0.647 0.000 0.0000 0.647 -0.0000
