% Pose without folding and reset (log_20240212_154916.313/log_pose_abs.txt)
% 1 	Time (sec)
% 2,3 	Position x,y (m)
% 4 	heading (rad)
% 5 	Driven distance (m) - signed
% 6 	Turned angle (rad) - signed
1707749357.3408 0.000 0.000 0.0000 0.000 0.0000
1707749357.3484 0.000 0.000 0.0000 0.000 0.0000
1707749357.3559 0.000 0.000 0.0000 0.000 0.0000
1707749357.3646 0.000 0.000 0.0000 0.000 0.0000
1707749357.3716 0.000 0.000 0.0000 0.000 0.0000
1707749357.3797 0.000 0.000 0.0000 0.000 0.0000
1707749357.3883 0.000 0.000 0.0000 0.000 0.0000
1707749357.3960 0.000 0.000 0.0000 0.000 0.0000
1707749357.4040 0.000 0.000 0.0000 0.000 0.0000
1707749357.4122 0.000 0.000 0.0000 0.000 0.0000
1707749357.4200 0.000 0.000 0.0000 0.000 0.0000
1707749357.4283 0.000 0.000 0.0000 0.000 0.0000
1707749357.4365 0.000 0.000 0.0000 0.000 0.0000
1707749357.4444 0.000 0.000 0.0000 0.000 0.0000
1707749357.4534 0.000 0.000 0.0000 0.000 0.0000
1707749357.4609 0.000 0.000 0.0000 0.000 0.0000
1707749357.4690 0.000 0.000 0.0000 0.000 0.0000
1707749357.4771 0.000 0.000 0.0000 0.000 0.0000
1707749357.4855 0.002 0.000 0.0016 0.002 0.0016
1707749357.4958 0.006 0.000 0.0031 0.006 0.0031
1707749357.5018 0.009 0.000 0.0031 0.009 0.0031
1707749357.5088 0.012 0.000 0.0078 0.012 0.0078
1707749357.5176 0.015 0.000 0.0078 0.015 0.0078
1707749357.5250 0.019 0.000 0.0109 0.019 0.0109
1707749357.5341 0.025 0.000 0.0124 0.025 0.0124
1707749357.5413 0.030 0.000 0.0140 0.030 0.0140
1707749357.5495 0.036 0.000 0.0171 0.036 0.0171
1707749357.5579 0.041 0.000 0.0171 0.041 0.0171
1707749357.5652 0.048 0.001 0.0202 0.048 0.0202
1707749357.5724 0.057 0.001 0.0217 0.057 0.0217
1707749357.5807 0.065 0.001 0.0202 0.065 0.0202
1707749357.5894 0.072 0.001 0.0186 0.072 0.0186
1707749357.5963 0.081 0.001 0.0186 0.081 0.0186
1707749357.6042 0.091 0.001 0.0186 0.091 0.0186
1707749357.6127 0.100 0.002 0.0171 0.100 0.0171
1707749357.6209 0.109 0.002 0.0140 0.109 0.0140
1707749357.6292 0.119 0.002 0.0093 0.119 0.0093
1707749357.6366 0.129 0.002 0.0093 0.129 0.0093
1707749357.6448 0.139 0.002 0.0078 0.139 0.0078
1707749357.6524 0.149 0.002 0.0047 0.149 0.0047
1707749357.6609 0.159 0.002 0.0031 0.159 0.0031
1707749357.6689 0.169 0.002 0.0031 0.169 0.0031
1707749357.6763 0.180 0.002 -0.0016 0.180 -0.0016
1707749357.6846 0.190 0.002 -0.0031 0.190 -0.0031
1707749357.6927 0.200 0.002 0.0000 0.200 0.0000
1707749357.7006 0.211 0.002 -0.0016 0.211 -0.0016
1707749357.7090 0.221 0.002 -0.0031 0.221 -0.0031
1707749357.7170 0.232 0.002 -0.0047 0.232 -0.0047
1707749357.7250 0.243 0.002 -0.0062 0.243 -0.0062
1707749357.7351 0.253 0.002 -0.0062 0.253 -0.0062
1707749357.7407 0.263 0.002 -0.0062 0.263 -0.0062
1707749357.7485 0.274 0.002 -0.0062 0.274 -0.0062
1707749357.7566 0.283 0.002 -0.0062 0.283 -0.0062
1707749357.7644 0.293 0.002 -0.0047 0.293 -0.0047
1707749357.7725 0.304 0.002 -0.0047 0.304 -0.0047
1707749357.7807 0.315 0.002 -0.0062 0.315 -0.0062
1707749357.7886 0.325 0.001 -0.0062 0.325 -0.0062
1707749357.7972 0.335 0.001 -0.0047 0.335 -0.0047
1707749357.8060 0.345 0.001 -0.0062 0.345 -0.0062
1707749357.8127 0.355 0.001 -0.0078 0.356 -0.0078
1707749357.8208 0.366 0.001 -0.0062 0.366 -0.0062
1707749357.8287 0.376 0.001 -0.0031 0.376 -0.0031
1707749357.8362 0.386 0.001 -0.0047 0.386 -0.0047
1707749357.8446 0.396 0.001 -0.0047 0.396 -0.0047
1707749357.8533 0.406 0.001 -0.0062 0.406 -0.0062
1707749357.8611 0.417 0.001 -0.0047 0.417 -0.0047
1707749357.8695 0.427 0.001 -0.0031 0.427 -0.0031
1707749357.8773 0.438 0.001 -0.0031 0.438 -0.0031
1707749357.8842 0.448 0.001 -0.0031 0.448 -0.0031
1707749357.8922 0.458 0.001 -0.0016 0.458 -0.0016
1707749357.9007 0.468 0.001 0.0000 0.468 0.0000
1707749357.9085 0.480 0.001 0.0016 0.480 0.0016
1707749357.9167 0.491 0.001 0.0016 0.491 0.0016
1707749357.9250 0.503 0.001 0.0016 0.503 0.0016
1707749357.9322 0.513 0.001 0.0016 0.513 0.0016
1707749357.9409 0.523 0.001 0.0016 0.523 0.0016
1707749357.9506 0.534 0.001 0.0016 0.534 0.0016
1707749357.9564 0.545 0.001 0.0031 0.545 0.0031
1707749357.9646 0.556 0.001 0.0000 0.556 0.0000
1707749357.9740 0.567 0.001 0.0016 0.567 0.0016
1707749357.9808 0.578 0.001 0.0016 0.578 0.0016
1707749357.9883 0.589 0.001 0.0016 0.589 0.0016
1707749357.9996 0.599 0.001 0.0047 0.599 0.0047
1707749358.0051 0.608 0.001 0.0047 0.608 0.0047
1707749358.0124 0.617 0.001 0.0047 0.617 0.0047
1707749358.0209 0.626 0.001 0.0047 0.626 0.0047
1707749358.0291 0.636 0.001 0.0031 0.636 0.0031
1707749358.0365 0.646 0.001 0.0031 0.646 0.0031
1707749358.0450 0.658 0.001 0.0078 0.658 0.0078
1707749358.0527 0.670 0.001 0.0093 0.670 0.0093
1707749358.0606 0.681 0.002 0.0093 0.681 0.0093
1707749358.0692 0.691 0.002 0.0062 0.691 0.0062
1707749358.0768 0.700 0.002 0.0047 0.700 0.0047
1707749358.0851 0.711 0.002 0.0031 0.711 0.0031
1707749358.0926 0.721 0.002 0.0016 0.721 0.0016
1707749358.1009 0.732 0.002 0.0016 0.732 0.0016
1707749358.1090 0.741 0.002 0.0016 0.741 0.0016
1707749358.1172 0.752 0.002 0.0016 0.752 0.0016
1707749358.1250 0.762 0.002 0.0031 0.762 0.0031
1707749358.1325 0.773 0.002 0.0000 0.773 0.0000
1707749358.1410 0.784 0.002 -0.0016 0.784 -0.0016
1707749358.1486 0.794 0.002 -0.0016 0.794 -0.0016
1707749358.1567 0.804 0.002 -0.0016 0.804 -0.0016
1707749358.1658 0.814 0.002 -0.0016 0.814 -0.0016
1707749358.1726 0.824 0.002 -0.0016 0.824 -0.0016
1707749358.1807 0.835 0.002 -0.0031 0.835 -0.0031
1707749358.1891 0.845 0.002 -0.0031 0.845 -0.0031
1707749358.1967 0.855 0.002 -0.0016 0.855 -0.0016
1707749358.2048 0.865 0.002 -0.0016 0.865 -0.0016
1707749358.2128 0.875 0.002 -0.0031 0.875 -0.0031
1707749358.2207 0.886 0.002 -0.0031 0.886 -0.0031
1707749358.2283 0.896 0.002 -0.0016 0.896 -0.0016
1707749358.2368 0.906 0.002 -0.0031 0.906 -0.0031
1707749358.2446 0.916 0.001 -0.0047 0.916 -0.0047
1707749358.2526 0.926 0.001 -0.0047 0.926 -0.0047
1707749358.2606 0.937 0.001 -0.0031 0.937 -0.0031
1707749358.2684 0.947 0.001 -0.0031 0.947 -0.0031
1707749358.2764 0.957 0.001 -0.0047 0.958 -0.0047
1707749358.2847 0.967 0.001 -0.0031 0.968 -0.0031
1707749358.2925 0.978 0.001 0.0000 0.978 0.0000
1707749358.3012 0.988 0.001 -0.0016 0.988 -0.0016
1707749358.3087 0.998 0.001 -0.0031 0.998 -0.0031
1707749358.3165 1.009 0.001 -0.0031 1.009 -0.0031
