% Pose without folding and reset (log_20240224_125031.343/log_pose_abs.txt)
% 1 	Time (sec)
% 2,3 	Position x,y (m)
% 4 	heading (rad)
% 5 	Driven distance (m) - signed
% 6 	Turned angle (rad) - signed
1708775431.8731 0.000 0.000 0.0000 0.000 0.0000
1708775431.8808 0.000 0.000 0.0000 0.000 0.0000
1708775431.8883 0.000 0.000 0.0000 0.000 0.0000
1708775431.8958 0.000 0.000 0.0000 0.000 0.0000
1708775431.9045 0.000 0.000 0.0000 0.000 0.0000
1708775431.9126 0.000 0.000 0.0000 0.000 0.0000
1708775431.9202 0.000 0.000 0.0000 0.000 0.0000
1708775431.9288 0.000 0.000 0.0000 0.000 0.0000
1708775431.9357 0.000 0.000 0.0000 0.000 0.0000
1708775431.9443 0.000 0.000 0.0000 0.000 0.0000
1708775431.9526 0.000 0.000 0.0000 0.000 0.0000
1708775431.9597 0.000 0.000 0.0000 0.000 0.0000
1708775431.9686 0.000 0.000 0.0000 0.000 0.0000
1708775431.9757 0.000 0.000 0.0000 0.000 0.0000
1708775431.9846 0.000 0.000 0.0000 0.000 0.0000
1708775431.9923 0.000 0.000 0.0000 0.000 0.0000
1708775432.0006 0.000 0.000 0.0000 0.000 0.0000
1708775432.0086 0.000 0.000 0.0016 0.000 0.0016
1708775432.0163 0.001 0.000 0.0078 0.001 0.0078
1708775432.0244 0.003 0.000 0.0047 0.003 0.0047
1708775432.0320 0.005 0.000 -0.0000 0.005 -0.0000
1708775432.0397 0.005 0.000 -0.0000 0.005 -0.0000
1708775432.0481 0.007 0.000 -0.0000 0.007 -0.0000
1708775432.0566 0.009 0.000 -0.0000 0.009 -0.0000
1708775432.0637 0.011 0.000 -0.0000 0.011 -0.0000
1708775432.0720 0.012 0.000 0.0016 0.012 0.0016
1708775432.0798 0.015 0.000 0.0016 0.015 0.0016
1708775432.0877 0.017 0.000 -0.0016 0.017 -0.0016
1708775432.0967 0.020 0.000 -0.0016 0.020 -0.0016
1708775432.1041 0.023 0.000 -0.0000 0.023 -0.0000
1708775432.1131 0.026 0.000 -0.0000 0.026 -0.0000
1708775432.1198 0.029 0.000 -0.0000 0.029 -0.0000
1708775432.1288 0.033 0.000 -0.0000 0.033 -0.0000
1708775432.1357 0.036 0.000 -0.0016 0.036 -0.0016
1708775432.1439 0.039 0.000 -0.0016 0.039 -0.0016
1708775432.1525 0.043 0.000 0.0016 0.043 0.0016
1708775432.1604 0.046 0.000 0.0016 0.046 0.0016
1708775432.1678 0.049 0.000 -0.0000 0.049 -0.0000
1708775432.1762 0.053 0.000 -0.0016 0.053 -0.0016
1708775432.1846 0.056 0.000 -0.0016 0.056 -0.0016
1708775432.1920 0.059 0.000 0.0031 0.059 0.0031
1708775432.2004 0.063 0.000 0.0047 0.063 0.0047
1708775432.2080 0.066 0.000 0.0016 0.066 0.0016
1708775432.2161 0.069 0.000 -0.0031 0.069 -0.0031
1708775432.2242 0.073 0.000 -0.0016 0.073 -0.0016
1708775432.2325 0.076 0.000 0.0047 0.076 0.0047
1708775432.2406 0.079 0.000 0.0078 0.079 0.0078
1708775432.2485 0.083 0.000 0.0031 0.083 0.0031
1708775432.2561 0.086 0.000 -0.0031 0.086 -0.0031
1708775432.2642 0.089 0.000 -0.0031 0.089 -0.0031
1708775432.2724 0.092 0.000 0.0031 0.092 0.0031
1708775432.2806 0.095 0.000 0.0062 0.095 0.0062
1708775432.2876 0.099 0.000 0.0016 0.099 0.0016
1708775432.2956 0.102 0.000 -0.0031 0.102 -0.0031
1708775432.3043 0.105 0.000 -0.0031 0.105 -0.0031
1708775432.3124 0.108 0.000 0.0016 0.108 0.0016
1708775432.3206 0.112 0.000 0.0078 0.112 0.0078
1708775432.3288 0.115 0.000 0.0047 0.115 0.0047
1708775432.3360 0.118 0.000 -0.0016 0.118 -0.0016
1708775432.3440 0.121 0.000 -0.0062 0.121 -0.0062
1708775432.3517 0.124 0.000 -0.0031 0.124 -0.0031
1708775432.3600 0.127 0.000 0.0031 0.127 0.0031
1708775432.3682 0.131 0.000 0.0031 0.131 0.0031
1708775432.3759 0.134 0.000 -0.0016 0.134 -0.0016
1708775432.3845 0.137 0.000 0.0000 0.137 0.0000
1708775432.3916 0.139 0.000 0.0031 0.139 0.0031
1708775432.4004 0.141 0.000 0.0000 0.141 0.0000
1708775432.4082 0.145 0.000 0.0000 0.145 0.0000
1708775432.4164 0.148 0.000 0.0016 0.148 0.0016
1708775432.4246 0.151 0.000 0.0016 0.151 0.0016
1708775432.4321 0.155 0.000 -0.0016 0.155 -0.0016
1708775432.4405 0.159 0.000 -0.0016 0.159 -0.0016
1708775432.4485 0.162 0.000 0.0031 0.162 0.0031
1708775432.4557 0.166 0.000 0.0031 0.166 0.0031
1708775432.4641 0.169 0.000 0.0031 0.169 0.0031
1708775432.4728 0.172 0.000 0.0031 0.172 0.0031
1708775432.4796 0.175 0.000 0.0016 0.175 0.0016
1708775432.4880 0.179 0.000 0.0016 0.179 0.0016
1708775432.4957 0.182 0.000 0.0031 0.182 0.0031
1708775432.5039 0.185 0.000 0.0031 0.185 0.0031
1708775432.5121 0.188 0.000 0.0031 0.188 0.0031
1708775432.5196 0.192 0.000 0.0031 0.192 0.0031
1708775432.5295 0.194 0.000 0.0047 0.194 0.0047
1708775432.5366 0.197 0.000 0.0062 0.197 0.0062
1708775432.5443 0.200 0.000 0.0047 0.200 0.0047
1708775432.5523 0.204 0.000 0.0016 0.204 0.0016
1708775432.5605 0.207 0.000 0.0016 0.207 0.0016
1708775432.5681 0.210 0.000 0.0047 0.210 0.0047
1708775432.5763 0.213 0.000 0.0078 0.213 0.0078
1708775432.5844 0.216 0.000 0.0047 0.216 0.0047
1708775432.5922 0.219 0.000 0.0016 0.219 0.0016
1708775432.6004 0.222 0.000 0.0031 0.222 0.0031
1708775432.6086 0.225 0.000 0.0062 0.225 0.0062
1708775432.6182 0.229 0.000 0.0062 0.229 0.0062
1708775432.6256 0.232 0.000 0.0062 0.232 0.0062
1708775432.6317 0.235 0.000 0.0078 0.235 0.0078
1708775432.6398 0.238 0.000 0.0078 0.238 0.0078
1708775432.6486 0.241 0.000 0.0093 0.241 0.0093
1708775432.6562 0.244 0.000 0.0078 0.244 0.0078
1708775432.6642 0.248 0.001 0.0078 0.248 0.0078
1708775432.6731 0.251 0.001 0.0078 0.251 0.0078
1708775432.6803 0.255 0.001 0.0093 0.255 0.0093
1708775432.6884 0.257 0.001 0.0093 0.257 0.0093
1708775432.6974 0.260 0.001 0.0078 0.260 0.0078
1708775432.7039 0.265 0.001 0.0047 0.265 0.0047
1708775432.7119 0.269 0.001 0.0062 0.269 0.0062
1708775432.7208 0.272 0.001 0.0093 0.272 0.0093
1708775432.7290 0.274 0.001 0.0093 0.274 0.0093
1708775432.7367 0.278 0.001 0.0062 0.278 0.0062
1708775432.7446 0.282 0.001 0.0062 0.282 0.0062
1708775432.7527 0.285 0.001 0.0093 0.285 0.0093
1708775432.7603 0.288 0.001 0.0093 0.288 0.0093
1708775432.7685 0.290 0.001 0.0062 0.290 0.0062
1708775432.7767 0.293 0.001 0.0062 0.293 0.0062
1708775432.7839 0.297 0.001 0.0078 0.297 0.0078
1708775432.7929 0.300 0.001 0.0093 0.300 0.0093
1708775432.8000 0.303 0.001 0.0093 0.303 0.0093
1708775432.8077 0.306 0.001 0.0093 0.306 0.0093
1708775432.8168 0.309 0.001 0.0093 0.309 0.0093
1708775432.8240 0.312 0.001 0.0093 0.312 0.0093
1708775432.8329 0.315 0.001 0.0093 0.315 0.0093
1708775432.8400 0.318 0.001 0.0109 0.318 0.0109
1708775432.8482 0.321 0.001 0.0109 0.321 0.0109
1708775432.8559 0.324 0.001 0.0109 0.324 0.0109
1708775432.8640 0.327 0.001 0.0093 0.327 0.0093
1708775432.8722 0.330 0.001 0.0109 0.330 0.0109
1708775432.8802 0.333 0.001 0.0093 0.333 0.0093
1708775432.8884 0.337 0.001 0.0078 0.337 0.0078
1708775432.8966 0.340 0.001 0.0093 0.340 0.0093
1708775432.9038 0.343 0.001 0.0124 0.343 0.0124
1708775432.9120 0.346 0.001 0.0124 0.346 0.0124
1708775432.9202 0.349 0.001 0.0093 0.349 0.0093
1708775432.9283 0.352 0.001 0.0078 0.352 0.0078
1708775432.9364 0.356 0.001 0.0109 0.356 0.0109
1708775432.9439 0.359 0.001 0.0124 0.359 0.0124
1708775432.9517 0.363 0.002 0.0109 0.363 0.0109
1708775432.9609 0.365 0.002 0.0093 0.366 0.0093
1708775432.9679 0.368 0.002 0.0109 0.368 0.0109
1708775432.9756 0.372 0.002 0.0124 0.372 0.0124
1708775432.9844 0.375 0.002 0.0124 0.375 0.0124
1708775432.9916 0.378 0.002 0.0093 0.378 0.0093
1708775433.0004 0.381 0.002 0.0093 0.381 0.0093
1708775433.0085 0.385 0.002 0.0109 0.385 0.0109
1708775433.0165 0.388 0.002 0.0155 0.388 0.0155
1708775433.0242 0.392 0.002 0.0124 0.392 0.0124
1708775433.0320 0.395 0.002 0.0078 0.395 0.0078
1708775433.0402 0.398 0.002 0.0078 0.398 0.0078
1708775433.0479 0.401 0.002 0.0124 0.401 0.0124
1708775433.0560 0.404 0.002 0.0140 0.404 0.0140
1708775433.0640 0.407 0.002 0.0109 0.407 0.0109
1708775433.0717 0.411 0.002 0.0047 0.411 0.0047
1708775433.0806 0.413 0.002 0.0031 0.413 0.0031
1708775433.0876 0.416 0.002 0.0093 0.416 0.0093
1708775433.0965 0.420 0.002 0.0124 0.420 0.0124
1708775433.1044 0.423 0.002 0.0093 0.423 0.0093
1708775433.1127 0.427 0.002 0.0062 0.427 0.0062
1708775433.1203 0.430 0.002 0.0062 0.430 0.0062
1708775433.1291 0.433 0.002 0.0093 0.433 0.0093
1708775433.1362 0.436 0.002 0.0093 0.436 0.0093
1708775433.1440 0.439 0.002 0.0078 0.439 0.0078
1708775433.1530 0.442 0.002 0.0062 0.442 0.0062
1708775433.1601 0.445 0.002 0.0078 0.445 0.0078
1708775433.1678 0.448 0.002 0.0093 0.448 0.0093
1708775433.1770 0.452 0.002 0.0093 0.452 0.0093
1708775433.1837 0.455 0.002 0.0062 0.455 0.0062
1708775433.1923 0.458 0.002 0.0093 0.458 0.0093
1708775433.2005 0.461 0.002 0.0109 0.461 0.0109
1708775433.2087 0.464 0.002 0.0124 0.464 0.0124
1708775433.2163 0.468 0.003 0.0093 0.468 0.0093
1708775433.2245 0.471 0.003 0.0047 0.471 0.0047
1708775433.2323 0.474 0.003 0.0062 0.474 0.0062
1708775433.2398 0.476 0.003 0.0124 0.476 0.0124
1708775433.2490 0.480 0.003 0.0124 0.480 0.0124
1708775433.2562 0.483 0.003 0.0078 0.483 0.0078
1708775433.2638 0.487 0.003 0.0047 0.487 0.0047
1708775433.2730 0.490 0.003 0.0062 0.490 0.0062
1708775433.2797 0.492 0.003 0.0109 0.492 0.0109
1708775433.2882 0.496 0.003 0.0124 0.496 0.0124
1708775433.2963 0.499 0.003 0.0078 0.499 0.0078
1708775433.3045 0.502 0.003 0.0031 0.502 0.0031
1708775433.3122 0.506 0.003 0.0031 0.506 0.0031
1708775433.3204 0.509 0.003 0.0093 0.509 0.0093
1708775433.3291 0.511 0.003 0.0109 0.511 0.0109
1708775433.3357 0.514 0.003 0.0078 0.514 0.0078
1708775433.3449 0.518 0.003 0.0047 0.518 0.0047
1708775433.3520 0.521 0.003 0.0062 0.521 0.0062
1708775433.3597 0.524 0.003 0.0093 0.524 0.0093
1708775433.3689 0.527 0.003 0.0078 0.527 0.0078
1708775433.3759 0.530 0.003 0.0031 0.530 0.0031
1708775433.3845 0.534 0.003 0.0016 0.534 0.0016
1708775433.3927 0.537 0.003 0.0078 0.537 0.0078
1708775433.3999 0.540 0.003 0.0140 0.540 0.0140
1708775433.4082 0.543 0.003 0.0124 0.543 0.0124
1708775433.4164 0.547 0.003 0.0062 0.547 0.0062
1708775433.4244 0.550 0.003 0.0031 0.550 0.0031
1708775433.4316 0.553 0.003 0.0078 0.553 0.0078
1708775433.4408 0.556 0.003 0.0140 0.556 0.0140
1708775433.4480 0.559 0.003 0.0124 0.559 0.0124
1708775433.4559 0.562 0.003 0.0093 0.562 0.0093
1708775433.4650 0.566 0.003 0.0078 0.566 0.0078
1708775433.4721 0.569 0.003 0.0093 0.569 0.0093
1708775433.4804 0.572 0.003 0.0109 0.572 0.0109
1708775433.4886 0.576 0.003 0.0093 0.576 0.0093
1708775433.4958 0.579 0.003 0.0047 0.579 0.0047
1708775433.5045 0.582 0.003 0.0047 0.582 0.0047
1708775433.5125 0.585 0.003 0.0078 0.585 0.0078
1708775433.5207 0.588 0.003 0.0047 0.588 0.0047
1708775433.5290 0.592 0.003 0.0016 0.592 0.0016
1708775433.5360 0.595 0.003 0.0016 0.595 0.0016
1708775433.5442 0.598 0.004 0.0047 0.598 0.0047
1708775433.5527 0.601 0.004 0.0109 0.601 0.0109
1708775433.5609 0.604 0.004 0.0093 0.604 0.0093
1708775433.5680 0.607 0.004 0.0062 0.607 0.0062
1708775433.5757 0.611 0.004 0.0031 0.611 0.0031
1708775433.5845 0.614 0.004 0.0047 0.614 0.0047
1708775433.5917 0.616 0.004 0.0078 0.616 0.0078
1708775433.6002 0.619 0.004 0.0062 0.619 0.0062
1708775433.6083 0.623 0.004 0.0047 0.623 0.0047
1708775433.6166 0.626 0.004 0.0047 0.626 0.0047
1708775433.6242 0.629 0.004 0.0062 0.629 0.0062
1708775433.6325 0.632 0.004 0.0062 0.632 0.0062
1708775433.6396 0.635 0.004 0.0047 0.635 0.0047
1708775433.6481 0.639 0.004 0.0031 0.639 0.0031
1708775433.6563 0.642 0.004 0.0062 0.642 0.0062
1708775433.6645 0.645 0.004 0.0093 0.645 0.0093
1708775433.6722 0.648 0.004 0.0047 0.648 0.0047
1708775433.6800 0.651 0.004 0.0031 0.651 0.0031
1708775433.6880 0.655 0.004 0.0062 0.655 0.0062
1708775433.6956 0.658 0.004 0.0078 0.658 0.0078
1708775433.7049 0.661 0.004 0.0062 0.661 0.0062
1708775433.7120 0.664 0.004 0.0031 0.664 0.0031
1708775433.7197 0.667 0.004 0.0047 0.667 0.0047
1708775433.7296 0.670 0.004 0.0062 0.670 0.0062
1708775433.7366 0.673 0.004 0.0047 0.673 0.0047
1708775433.7443 0.676 0.004 0.0031 0.676 0.0031
1708775433.7524 0.680 0.004 0.0031 0.680 0.0031
1708775433.7607 0.683 0.004 0.0062 0.683 0.0062
1708775433.7684 0.686 0.004 0.0078 0.686 0.0078
1708775433.7765 0.689 0.004 0.0047 0.689 0.0047
1708775433.7841 0.693 0.004 0.0031 0.693 0.0031
1708775433.7918 0.696 0.004 0.0062 0.696 0.0062
1708775433.8000 0.699 0.004 0.0062 0.699 0.0062
1708775433.8082 0.702 0.004 0.0047 0.702 0.0047
1708775433.8159 0.705 0.004 0.0062 0.705 0.0062
1708775433.8249 0.709 0.004 0.0047 0.709 0.0047
1708775433.8320 0.712 0.004 0.0016 0.712 0.0016
1708775433.8397 0.715 0.004 0.0016 0.715 0.0016
1708775433.8489 0.718 0.004 0.0047 0.718 0.0047
1708775433.8561 0.722 0.004 0.0047 0.722 0.0047
1708775433.8638 0.726 0.004 0.0047 0.726 0.0047
1708775433.8727 0.728 0.004 0.0031 0.728 0.0031
1708775433.8805 0.731 0.004 0.0016 0.731 0.0016
1708775433.8882 0.734 0.004 0.0031 0.734 0.0031
1708775433.8964 0.738 0.004 0.0047 0.738 0.0047
1708775433.9043 0.741 0.004 0.0031 0.741 0.0031
1708775433.9128 0.744 0.004 0.0047 0.744 0.0047
1708775433.9206 0.747 0.004 0.0062 0.747 0.0062
1708775433.9292 0.750 0.004 0.0078 0.750 0.0078
1708775433.9358 0.753 0.004 0.0047 0.753 0.0047
1708775433.9440 0.757 0.004 0.0031 0.757 0.0031
1708775433.9522 0.760 0.004 0.0031 0.760 0.0031
1708775433.9596 0.762 0.004 0.0031 0.762 0.0031
1708775433.9689 0.766 0.004 0.0047 0.766 0.0047
1708775433.9760 0.769 0.004 0.0047 0.769 0.0047
1708775433.9844 0.772 0.004 0.0031 0.773 0.0031
1708775433.9926 0.775 0.004 0.0031 0.775 0.0031
1708775433.9997 0.778 0.004 0.0016 0.778 0.0016
1708775434.0083 0.782 0.004 0.0016 0.782 0.0016
1708775434.0165 0.785 0.004 0.0016 0.785 0.0016
1708775434.0236 0.788 0.004 0.0000 0.788 0.0000
1708775434.0322 0.791 0.004 -0.0031 0.791 -0.0031
1708775434.0427 0.794 0.004 -0.0031 0.794 -0.0031
1708775434.0487 0.798 0.004 -0.0031 0.798 -0.0031
1708775434.0565 0.802 0.004 -0.0016 0.802 -0.0016
1708775434.0648 0.804 0.004 0.0000 0.804 0.0000
1708775434.0721 0.806 0.004 0.0000 0.806 0.0000
1708775434.0806 0.810 0.004 -0.0016 0.810 -0.0016
1708775434.0889 0.813 0.004 -0.0047 0.813 -0.0047
1708775434.0960 0.817 0.004 -0.0047 0.817 -0.0047
1708775434.1039 0.819 0.004 -0.0047 0.819 -0.0047
1708775434.1122 0.822 0.004 -0.0047 0.822 -0.0047
1708775434.1206 0.825 0.004 -0.0047 0.825 -0.0047
1708775434.1292 0.829 0.004 -0.0062 0.829 -0.0062
1708775434.1364 0.833 0.004 -0.0093 0.833 -0.0093
1708775434.1445 0.835 0.004 -0.0093 0.835 -0.0093
1708775434.1522 0.838 0.004 -0.0062 0.838 -0.0062
1708775434.1605 0.841 0.004 -0.0062 0.841 -0.0062
1708775434.1678 0.845 0.004 -0.0078 0.845 -0.0078
1708775434.1757 0.849 0.004 -0.0124 0.849 -0.0124
1708775434.1844 0.851 0.004 -0.0140 0.851 -0.0140
1708775434.1917 0.854 0.004 -0.0124 0.854 -0.0124
1708775434.2006 0.857 0.004 -0.0124 0.857 -0.0124
1708775434.2089 0.860 0.004 -0.0140 0.860 -0.0140
1708775434.2161 0.864 0.004 -0.0155 0.864 -0.0155
1708775434.2241 0.867 0.004 -0.0124 0.867 -0.0124
1708775434.2330 0.869 0.004 -0.0093 0.869 -0.0093
1708775434.2402 0.872 0.004 -0.0124 0.872 -0.0124
1708775434.2481 0.876 0.004 -0.0171 0.876 -0.0171
1708775434.2563 0.879 0.004 -0.0171 0.879 -0.0171
1708775434.2637 0.882 0.004 -0.0171 0.882 -0.0171
1708775434.2725 0.885 0.004 -0.0217 0.885 -0.0217
1708775434.2804 0.888 0.004 -0.0279 0.888 -0.0279
1708775434.2877 0.892 0.003 -0.0310 0.892 -0.0310
1708775434.2957 0.895 0.003 -0.0295 0.895 -0.0295
1708775434.3051 0.897 0.003 -0.0310 0.897 -0.0310
1708775434.3123 0.901 0.003 -0.0373 0.901 -0.0373
1708775434.3201 0.904 0.003 -0.0419 0.904 -0.0419
1708775434.3291 0.907 0.003 -0.0466 0.907 -0.0466
1708775434.3364 0.910 0.003 -0.0543 0.910 -0.0543
1708775434.3442 0.914 0.003 -0.0605 0.914 -0.0605
1708775434.3524 0.917 0.002 -0.0667 0.917 -0.0667
1708775434.3597 0.920 0.002 -0.0745 0.920 -0.0745
1708775434.3684 0.923 0.002 -0.0838 0.923 -0.0838
1708775434.3767 0.926 0.002 -0.0916 0.926 -0.0916
1708775434.3847 0.929 0.001 -0.0978 0.929 -0.0978
1708775434.3925 0.933 0.001 -0.1024 0.933 -0.1024
1708775434.4007 0.936 0.001 -0.1087 0.936 -0.1087
1708775434.4086 0.939 0.000 -0.1195 0.939 -0.1195
1708775434.4164 0.942 -0.000 -0.1288 0.942 -0.1288
1708775434.4247 0.945 -0.001 -0.1335 0.945 -0.1335
1708775434.4321 0.948 -0.001 -0.1366 0.949 -0.1366
1708775434.4402 0.952 -0.001 -0.1413 0.952 -0.1413
1708775434.4485 0.955 -0.002 -0.1459 0.955 -0.1459
1708775434.4558 0.958 -0.002 -0.1537 0.958 -0.1537
1708775434.4637 0.961 -0.003 -0.1583 0.961 -0.1583
1708775434.4730 0.964 -0.003 -0.1599 0.964 -0.1599
1708775434.4799 0.967 -0.004 -0.1614 0.968 -0.1614
1708775434.4878 0.971 -0.004 -0.1676 0.971 -0.1676
1708775434.4960 0.973 -0.005 -0.1739 0.974 -0.1739
1708775434.5043 0.976 -0.005 -0.1770 0.977 -0.1770
1708775434.5123 0.980 -0.006 -0.1754 0.980 -0.1754
1708775434.5207 0.983 -0.007 -0.1785 0.984 -0.1785
1708775434.5290 0.987 -0.007 -0.1847 0.987 -0.1847
1708775434.5359 0.989 -0.008 -0.1894 0.990 -0.1894
1708775434.5443 0.992 -0.008 -0.1894 0.993 -0.1894
1708775434.5519 0.995 -0.009 -0.1909 0.996 -0.1909
1708775434.5600 0.999 -0.010 -0.1971 1.000 -0.1971
1708775434.5686 1.002 -0.010 -0.2018 1.003 -0.2018
1708775434.5760 1.005 -0.011 -0.2049 1.006 -0.2049
1708775434.5838 1.008 -0.011 -0.2096 1.009 -0.2096
1708775434.5923 1.011 -0.012 -0.2142 1.012 -0.2142
1708775434.6007 1.014 -0.013 -0.2220 1.015 -0.2220
1708775434.6086 1.017 -0.014 -0.2297 1.018 -0.2297
1708775434.6171 1.020 -0.014 -0.2344 1.022 -0.2344
1708775434.6247 1.023 -0.015 -0.2437 1.025 -0.2437
1708775434.6334 1.026 -0.016 -0.2530 1.028 -0.2530
1708775434.6407 1.029 -0.017 -0.2623 1.031 -0.2623
1708775434.6482 1.032 -0.017 -0.2732 1.034 -0.2732
1708775434.6562 1.036 -0.018 -0.2810 1.038 -0.2810
1708775434.6647 1.039 -0.019 -0.2918 1.041 -0.2918
1708775434.6720 1.041 -0.020 -0.3042 1.044 -0.3042
1708775434.6806 1.045 -0.021 -0.3167 1.047 -0.3167
1708775434.6891 1.048 -0.022 -0.3275 1.051 -0.3275
1708775434.6969 1.051 -0.023 -0.3415 1.054 -0.3415
1708775434.7038 1.054 -0.024 -0.3555 1.057 -0.3555
1708775434.7123 1.057 -0.026 -0.3694 1.060 -0.3694
1708775434.7198 1.060 -0.027 -0.3803 1.064 -0.3803
1708775434.7288 1.063 -0.028 -0.3943 1.066 -0.3943
1708775434.7362 1.065 -0.029 -0.4098 1.069 -0.4098
1708775434.7438 1.069 -0.030 -0.4222 1.073 -0.4222
1708775434.7517 1.072 -0.032 -0.4346 1.076 -0.4346
1708775434.7601 1.075 -0.033 -0.4502 1.080 -0.4502
1708775434.7685 1.077 -0.035 -0.4657 1.083 -0.4657
1708775434.7765 1.080 -0.036 -0.4812 1.086 -0.4812
1708775434.7893 1.083 -0.038 -0.4936 1.089 -0.4936
1708775434.7926 1.086 -0.039 -0.5045 1.093 -0.5045
1708775434.8007 1.089 -0.041 -0.5185 1.096 -0.5185
1708775434.8080 1.090 -0.042 -0.5278 1.097 -0.5278
1708775434.8162 1.093 -0.043 -0.5386 1.100 -0.5386
1708775434.8241 1.096 -0.045 -0.5526 1.104 -0.5526
1708775434.8322 1.099 -0.047 -0.5666 1.108 -0.5666
1708775434.8405 1.102 -0.049 -0.5774 1.110 -0.5774
1708775434.8484 1.104 -0.050 -0.5868 1.113 -0.5868
1708775434.8567 1.106 -0.051 -0.5961 1.116 -0.5961
1708775434.8646 1.109 -0.054 -0.6085 1.120 -0.6085
1708775434.8727 1.112 -0.056 -0.6209 1.123 -0.6209
1708775434.8807 1.114 -0.057 -0.6302 1.126 -0.6302
1708775434.8879 1.116 -0.059 -0.6380 1.128 -0.6380
1708775434.8958 1.118 -0.060 -0.6473 1.131 -0.6473
1708775434.9048 1.121 -0.063 -0.6566 1.135 -0.6566
1708775434.9121 1.124 -0.065 -0.6644 1.138 -0.6644
1708775434.9199 1.126 -0.066 -0.6721 1.140 -0.6721
1708775434.9288 1.128 -0.068 -0.6783 1.143 -0.6783
1708775434.9362 1.131 -0.070 -0.6845 1.147 -0.6845
1708775434.9444 1.134 -0.072 -0.6908 1.150 -0.6908
1708775434.9527 1.136 -0.074 -0.6954 1.153 -0.6954
1708775434.9601 1.138 -0.076 -0.6970 1.156 -0.6970
1708775434.9684 1.141 -0.078 -0.7016 1.160 -0.7016
1708775434.9768 1.143 -0.080 -0.7094 1.163 -0.7094
1708775434.9839 1.145 -0.082 -0.7140 1.166 -0.7140
1708775434.9930 1.148 -0.085 -0.7140 1.169 -0.7140
1708775435.0005 1.150 -0.086 -0.7156 1.172 -0.7156
1708775435.0078 1.153 -0.089 -0.7234 1.175 -0.7234
1708775435.0160 1.155 -0.091 -0.7296 1.178 -0.7296
1708775435.0245 1.157 -0.093 -0.7296 1.182 -0.7296
1708775435.0327 1.160 -0.095 -0.7311 1.185 -0.7311
1708775435.0406 1.162 -0.097 -0.7358 1.188 -0.7358
1708775435.0496 1.165 -0.099 -0.7435 1.191 -0.7435
1708775435.0559 1.167 -0.101 -0.7451 1.195 -0.7451
1708775435.0640 1.169 -0.104 -0.7466 1.198 -0.7466
1708775435.0725 1.171 -0.106 -0.7482 1.201 -0.7482
1708775435.0807 1.173 -0.107 -0.7559 1.203 -0.7559
1708775435.0887 1.176 -0.110 -0.7591 1.207 -0.7591
1708775435.0961 1.178 -0.112 -0.7606 1.210 -0.7606
