% Pose without folding and reset (log_20240205_132140.969/log_pose_abs.txt)
% 1 	Time (sec)
% 2,3 	Position x,y (m)
% 4 	heading (rad)
% 5 	Driven distance (m) - signed
% 6 	Turned angle (rad) - signed
1707135701.3669 0.000 0.000 0.0000 0.000 0.0000
1707135701.3752 0.000 0.000 0.0000 0.000 0.0000
1707135701.3829 0.000 0.000 0.0000 0.000 0.0000
1707135701.3904 0.000 0.000 0.0000 0.000 0.0000
1707135701.3979 0.000 0.000 0.0000 0.000 0.0000
1707135701.4055 0.000 0.000 0.0000 0.000 0.0000
1707135701.4140 0.000 0.000 0.0000 0.000 0.0000
1707135701.4225 0.000 0.000 0.0000 0.000 0.0000
1707135701.4303 0.000 0.000 0.0000 0.000 0.0000
1707135701.4378 0.000 0.000 0.0000 0.000 0.0000
1707135701.4463 0.000 0.000 0.0000 0.000 0.0000
1707135701.4537 0.000 0.000 0.0000 0.000 0.0000
1707135701.4626 0.000 0.000 0.0000 0.000 0.0000
1707135701.4702 0.000 0.000 0.0000 0.000 0.0000
1707135701.4781 0.000 0.000 0.0000 0.000 0.0000
1707135701.4858 0.000 0.000 0.0000 0.000 0.0000
1707135701.4943 0.000 0.000 0.0000 0.000 0.0000
1707135701.5018 0.000 0.000 0.0000 0.000 0.0000
1707135701.5105 0.001 0.000 0.0000 0.001 0.0000
1707135701.5178 0.002 0.000 0.0000 0.002 0.0000
1707135701.5260 0.004 0.000 0.0016 0.004 0.0016
1707135701.5343 0.006 0.000 0.0031 0.006 0.0031
1707135701.5419 0.007 0.000 0.0031 0.007 0.0031
1707135701.5506 0.008 0.000 0.0016 0.008 0.0016
1707135701.5582 0.010 0.000 0.0000 0.010 0.0000
1707135701.5666 0.012 0.000 -0.0016 0.012 -0.0016
1707135701.5738 0.014 0.000 -0.0000 0.014 -0.0000
1707135701.5825 0.016 0.000 0.0016 0.016 0.0016
1707135701.5901 0.018 0.000 0.0016 0.018 0.0016
1707135701.5977 0.020 0.000 -0.0000 0.020 -0.0000
1707135701.6064 0.022 0.000 -0.0016 0.022 -0.0016
1707135701.6138 0.024 0.000 -0.0000 0.024 -0.0000
1707135701.6225 0.026 0.000 0.0016 0.026 0.0016
1707135701.6296 0.028 0.000 0.0016 0.028 0.0016
1707135701.6383 0.030 0.000 -0.0016 0.030 -0.0016
1707135701.6459 0.032 0.000 -0.0016 0.032 -0.0016
1707135701.6545 0.034 0.000 -0.0000 0.034 -0.0000
1707135701.6620 0.037 0.000 0.0016 0.037 0.0016
1707135701.6698 0.039 0.000 -0.0000 0.039 -0.0000
1707135701.6781 0.041 0.000 -0.0000 0.041 -0.0000
1707135701.6856 0.043 0.000 -0.0000 0.043 -0.0000
1707135701.6944 0.046 0.000 -0.0000 0.046 -0.0000
1707135701.7019 0.048 0.000 0.0016 0.048 0.0016
1707135701.7105 0.051 0.000 0.0016 0.051 0.0016
1707135701.7182 0.053 0.000 0.0016 0.053 0.0016
1707135701.7265 0.055 0.000 0.0016 0.055 0.0016
1707135701.7340 0.058 0.000 -0.0000 0.058 -0.0000
1707135701.7417 0.060 0.000 -0.0000 0.060 -0.0000
1707135701.7502 0.063 0.000 -0.0000 0.063 -0.0000
1707135701.7577 0.064 0.000 0.0016 0.064 0.0016
1707135701.7664 0.067 0.000 -0.0000 0.067 -0.0000
1707135701.7737 0.070 0.000 0.0016 0.070 0.0016
1707135701.7823 0.072 0.000 0.0031 0.072 0.0031
1707135701.7897 0.074 0.000 0.0016 0.074 0.0016
1707135701.7985 0.076 0.000 0.0016 0.076 0.0016
1707135701.8061 0.079 0.000 -0.0000 0.079 -0.0000
1707135701.8137 0.081 0.000 0.0016 0.081 0.0016
1707135701.8225 0.084 0.000 0.0016 0.084 0.0016
1707135701.8306 0.086 0.000 -0.0000 0.086 -0.0000
1707135701.8381 0.089 0.000 -0.0000 0.089 -0.0000
1707135701.8458 0.091 0.000 0.0016 0.091 0.0016
1707135701.8544 0.093 0.000 0.0031 0.093 0.0031
1707135701.8621 0.095 0.000 0.0016 0.095 0.0016
1707135701.8698 0.098 0.000 -0.0000 0.098 -0.0000
1707135701.8778 0.101 0.000 -0.0000 0.101 -0.0000
1707135701.8865 0.103 0.000 -0.0000 0.103 -0.0000
1707135701.8942 0.105 0.000 0.0016 0.105 0.0016
1707135701.9017 0.107 0.000 0.0016 0.107 0.0016
1707135701.9105 0.110 0.000 -0.0000 0.110 -0.0000
1707135701.9181 0.112 0.000 -0.0031 0.112 -0.0031
1707135701.9261 0.115 0.000 -0.0016 0.115 -0.0016
1707135701.9339 0.117 0.000 0.0016 0.117 0.0016
1707135701.9416 0.119 0.000 0.0016 0.119 0.0016
1707135701.9503 0.122 0.000 -0.0047 0.122 -0.0047
1707135701.9579 0.124 0.000 -0.0062 0.124 -0.0062
1707135701.9657 0.127 0.000 -0.0031 0.127 -0.0031
1707135701.9737 0.129 0.000 -0.0000 0.129 -0.0000
1707135701.9825 0.131 0.000 -0.0000 0.131 -0.0000
1707135701.9902 0.134 0.000 -0.0031 0.134 -0.0031
1707135701.9978 0.136 0.000 -0.0062 0.136 -0.0062
1707135702.0065 0.139 0.000 -0.0031 0.139 -0.0031
1707135702.0140 0.141 0.000 0.0016 0.141 0.0016
1707135702.0227 0.143 0.000 -0.0016 0.143 -0.0016
1707135702.0296 0.146 0.000 -0.0031 0.146 -0.0031
1707135702.0384 0.148 0.000 -0.0031 0.148 -0.0031
1707135702.0460 0.151 -0.000 -0.0000 0.151 -0.0000
1707135702.0537 0.153 -0.000 -0.0000 0.153 -0.0000
1707135702.0623 0.155 -0.000 -0.0031 0.155 -0.0031
1707135702.0699 0.158 -0.000 -0.0031 0.158 -0.0031
1707135702.0782 0.160 -0.000 -0.0016 0.160 -0.0016
1707135702.0859 0.163 -0.000 -0.0000 0.163 -0.0000
1707135702.0945 0.165 -0.000 -0.0000 0.165 -0.0000
1707135702.1022 0.167 -0.000 -0.0031 0.167 -0.0031
1707135702.1097 0.170 -0.000 -0.0016 0.170 -0.0016
1707135702.1183 0.172 -0.000 -0.0000 0.172 -0.0000
1707135702.1256 0.174 -0.000 0.0016 0.174 0.0016
1707135702.1343 0.177 -0.000 -0.0000 0.177 -0.0000
1707135702.1419 0.179 -0.000 -0.0016 0.179 -0.0016
1707135702.1504 0.182 -0.000 -0.0016 0.182 -0.0016
1707135702.1580 0.184 -0.000 0.0031 0.184 0.0031
1707135702.1656 0.186 -0.000 0.0031 0.186 0.0031
1707135702.1739 0.189 -0.000 0.0016 0.189 0.0016
1707135702.1826 0.191 -0.000 0.0016 0.191 0.0016
1707135702.1903 0.194 -0.000 0.0031 0.194 0.0031
1707135702.1978 0.196 -0.000 0.0031 0.196 0.0031
1707135702.2065 0.198 0.000 0.0016 0.198 0.0016
1707135702.2141 0.201 0.000 -0.0016 0.201 -0.0016
1707135702.2217 0.203 -0.000 -0.0016 0.203 -0.0016
1707135702.2300 0.206 -0.000 0.0016 0.206 0.0016
1707135702.2385 0.208 0.000 0.0016 0.208 0.0016
1707135702.2461 0.210 0.000 -0.0000 0.210 -0.0000
1707135702.2537 0.212 -0.000 -0.0031 0.212 -0.0031
1707135702.2624 0.215 -0.000 -0.0000 0.215 -0.0000
1707135702.2700 0.217 -0.000 0.0016 0.217 0.0016
1707135702.2784 0.220 -0.000 -0.0016 0.220 -0.0016
1707135702.2857 0.222 -0.000 -0.0031 0.222 -0.0031
1707135702.2945 0.225 -0.000 -0.0016 0.225 -0.0016
1707135702.3021 0.227 -0.000 0.0016 0.227 0.0016
1707135702.3097 0.229 -0.000 0.0016 0.229 0.0016
1707135702.3185 0.232 -0.000 -0.0031 0.232 -0.0031
1707135702.3258 0.234 -0.000 -0.0031 0.234 -0.0031
1707135702.3342 0.237 -0.000 -0.0000 0.237 -0.0000
1707135702.3420 0.239 -0.000 0.0031 0.239 0.0031
1707135702.3496 0.241 -0.000 0.0016 0.241 0.0016
1707135702.3583 0.243 -0.000 -0.0016 0.243 -0.0016
1707135702.3660 0.246 -0.000 -0.0016 0.246 -0.0016
1707135702.3742 0.248 -0.000 0.0016 0.248 0.0016
1707135702.3817 0.251 -0.000 0.0047 0.251 0.0047
1707135702.3905 0.254 -0.000 0.0016 0.254 0.0016
1707135702.3983 0.256 -0.000 -0.0016 0.256 -0.0016
1707135702.4059 0.258 -0.000 -0.0016 0.258 -0.0016
1707135702.4146 0.260 -0.000 0.0016 0.260 0.0016
1707135702.4220 0.263 -0.000 0.0031 0.263 0.0031
1707135702.4303 0.266 0.000 -0.0000 0.266 -0.0000
1707135702.4379 0.268 0.000 -0.0031 0.268 -0.0031
1707135702.4466 0.270 -0.000 -0.0016 0.270 -0.0016
1707135702.4542 0.272 -0.000 0.0031 0.272 0.0031
1707135702.4620 0.275 0.000 0.0062 0.275 0.0062
1707135702.4705 0.277 0.000 0.0047 0.277 0.0047
1707135702.4776 0.280 0.000 -0.0000 0.280 -0.0000
1707135702.4864 0.282 0.000 -0.0047 0.282 -0.0047
1707135702.4940 0.284 0.000 -0.0000 0.284 -0.0000
1707135702.5016 0.287 0.000 0.0062 0.287 0.0062
1707135702.5102 0.289 0.000 0.0047 0.289 0.0047
1707135702.5179 0.292 0.000 -0.0000 0.292 -0.0000
1707135702.5261 0.294 0.000 -0.0000 0.294 -0.0000
1707135702.5344 0.296 0.000 0.0016 0.296 0.0016
1707135702.5421 0.299 0.000 0.0016 0.299 0.0016
1707135702.5497 0.302 0.000 0.0031 0.302 0.0031
1707135702.5583 0.304 0.000 0.0031 0.304 0.0031
1707135702.5660 0.306 0.000 0.0016 0.306 0.0016
1707135702.5742 0.306 0.000 0.0016 0.306 0.0016
1707135702.5818 0.307 0.000 0.0031 0.307 0.0031
1707135702.5906 0.307 0.000 0.0031 0.307 0.0031
1707135702.5980 0.307 0.000 0.0031 0.307 0.0031
1707135702.6056 0.307 0.000 0.0031 0.307 0.0031
1707135702.6144 0.307 0.000 0.0031 0.307 0.0031
1707135702.6220 0.308 0.000 0.0047 0.308 0.0047
1707135702.6302 0.309 0.000 0.0093 0.309 0.0093
1707135702.6380 0.309 0.000 0.0109 0.309 0.0109
1707135702.6465 0.309 0.000 0.0109 0.309 0.0109
1707135702.6541 0.309 0.000 0.0109 0.309 0.0109
1707135702.6618 0.309 0.000 0.0109 0.309 0.0109
1707135702.6704 0.309 0.000 0.0140 0.309 0.0140
1707135702.6777 0.309 0.000 0.0171 0.309 0.0171
1707135702.6864 0.310 0.000 0.0217 0.310 0.0217
1707135702.6939 0.310 0.000 0.0233 0.310 0.0233
1707135702.7016 0.310 0.000 0.0248 0.310 0.0248
1707135702.7105 0.311 0.000 0.0279 0.311 0.0279
1707135702.7181 0.311 0.000 0.0310 0.311 0.0310
1707135702.7264 0.311 0.000 0.0326 0.311 0.0326
1707135702.7339 0.311 0.000 0.0326 0.311 0.0326
1707135702.7426 0.312 0.000 0.0341 0.312 0.0341
1707135702.7504 0.312 0.000 0.0388 0.312 0.0388
1707135702.7581 0.313 0.000 0.0435 0.313 0.0435
1707135702.7659 0.313 0.000 0.0450 0.313 0.0450
1707135702.7744 0.313 0.000 0.0450 0.313 0.0450
1707135702.7819 0.313 0.000 0.0481 0.313 0.0481
1707135702.7906 0.314 0.000 0.0528 0.314 0.0528
1707135702.7983 0.314 0.000 0.0574 0.314 0.0574
1707135702.8060 0.314 0.000 0.0590 0.314 0.0590
1707135702.8147 0.314 0.000 0.0636 0.314 0.0636
1707135702.8224 0.314 0.000 0.0714 0.314 0.0714
1707135702.8305 0.314 0.000 0.0761 0.314 0.0761
1707135702.8381 0.314 0.000 0.0807 0.314 0.0807
1707135702.8458 0.314 0.000 0.0823 0.314 0.0823
1707135702.8546 0.314 0.000 0.0854 0.314 0.0854
1707135702.8622 0.314 0.000 0.0931 0.314 0.0931
1707135702.8697 0.314 0.000 0.0993 0.314 0.0993
1707135702.8781 0.314 0.000 0.1009 0.314 0.1009
1707135702.8857 0.314 0.000 0.1040 0.314 0.1040
1707135702.8945 0.314 0.000 0.1102 0.314 0.1102
1707135702.9021 0.314 0.000 0.1149 0.314 0.1149
1707135702.9098 0.314 0.000 0.1180 0.314 0.1180
1707135702.9184 0.314 0.000 0.1211 0.314 0.1211
1707135702.9256 0.315 0.000 0.1257 0.315 0.1257
1707135702.9343 0.315 0.000 0.1304 0.315 0.1304
1707135702.9420 0.315 0.000 0.1350 0.315 0.1350
1707135702.9496 0.314 0.000 0.1397 0.314 0.1397
1707135702.9582 0.314 0.000 0.1459 0.314 0.1459
1707135702.9658 0.315 0.000 0.1506 0.315 0.1506
1707135702.9742 0.315 0.000 0.1521 0.315 0.1521
1707135702.9818 0.315 0.000 0.1537 0.315 0.1537
1707135702.9906 0.315 0.000 0.1614 0.315 0.1614
1707135702.9982 0.314 0.000 0.1723 0.314 0.1723
1707135703.0066 0.315 0.000 0.1770 0.315 0.1770
1707135703.0144 0.315 0.000 0.1785 0.315 0.1785
1707135703.0221 0.315 0.000 0.1816 0.315 0.1816
1707135703.0299 0.315 0.000 0.1863 0.315 0.1863
1707135703.0387 0.315 0.000 0.1925 0.315 0.1925
1707135703.0463 0.315 0.000 0.1940 0.315 0.1940
1707135703.0537 0.315 0.000 0.1940 0.315 0.1940
1707135703.0625 0.315 0.000 0.1987 0.315 0.1987
1707135703.0701 0.315 0.000 0.2064 0.315 0.2064
1707135703.0783 0.315 0.000 0.2142 0.315 0.2142
1707135703.0860 0.315 0.000 0.2173 0.315 0.2173
1707135703.0945 0.315 0.000 0.2173 0.315 0.2173
1707135703.1021 0.315 0.000 0.2204 0.315 0.2204
1707135703.1098 0.315 0.000 0.2282 0.315 0.2282
1707135703.1186 0.315 0.000 0.2344 0.315 0.2344
1707135703.1257 0.315 0.000 0.2359 0.315 0.2359
1707135703.1345 0.315 0.000 0.2359 0.315 0.2359
1707135703.1419 0.315 0.000 0.2375 0.315 0.2375
1707135703.1505 0.315 0.000 0.2422 0.315 0.2422
1707135703.1582 0.315 0.000 0.2530 0.315 0.2530
1707135703.1659 0.315 0.000 0.2592 0.315 0.2592
1707135703.1741 0.315 0.000 0.2608 0.315 0.2608
1707135703.1819 0.315 0.000 0.2639 0.315 0.2639
1707135703.1904 0.315 0.000 0.2670 0.315 0.2670
1707135703.1980 0.315 0.000 0.2716 0.315 0.2716
1707135703.2057 0.315 0.000 0.2747 0.315 0.2747
1707135703.2145 0.315 0.000 0.2747 0.315 0.2747
1707135703.2221 0.315 0.000 0.2747 0.315 0.2747
1707135703.2302 0.315 0.000 0.2779 0.315 0.2779
1707135703.2380 0.315 0.000 0.2856 0.315 0.2856
1707135703.2467 0.315 0.000 0.2949 0.315 0.2949
1707135703.2544 0.315 0.000 0.2996 0.315 0.2996
1707135703.2621 0.315 0.000 0.3011 0.315 0.3011
1707135703.2707 0.315 0.000 0.3027 0.315 0.3027
1707135703.2777 0.315 0.001 0.3073 0.315 0.3073
1707135703.2864 0.315 0.001 0.3136 0.315 0.3136
1707135703.2940 0.315 0.000 0.3198 0.315 0.3198
1707135703.3016 0.315 0.000 0.3213 0.315 0.3213
1707135703.3104 0.315 0.000 0.3229 0.315 0.3229
1707135703.3178 0.315 0.000 0.3260 0.315 0.3260
1707135703.3261 0.315 0.000 0.3306 0.315 0.3306
1707135703.3337 0.315 0.000 0.3384 0.315 0.3384
1707135703.3424 0.315 0.000 0.3430 0.315 0.3430
1707135703.3500 0.315 0.000 0.3446 0.315 0.3446
1707135703.3577 0.315 0.000 0.3477 0.315 0.3477
1707135703.3661 0.315 0.000 0.3555 0.315 0.3555
1707135703.3745 0.315 0.000 0.3617 0.315 0.3617
1707135703.3822 0.315 0.000 0.3648 0.315 0.3648
1707135703.3898 0.315 0.000 0.3648 0.315 0.3648
1707135703.3986 0.315 0.000 0.3663 0.315 0.3663
1707135703.4062 0.315 0.000 0.3741 0.315 0.3741
1707135703.4147 0.315 0.000 0.3834 0.315 0.3834
1707135703.4223 0.315 0.000 0.3896 0.315 0.3896
1707135703.4307 0.315 0.001 0.3912 0.315 0.3912
1707135703.4382 0.315 0.001 0.3958 0.316 0.3958
1707135703.4459 0.315 0.001 0.3974 0.315 0.3974
1707135703.4544 0.315 0.000 0.4005 0.315 0.4005
1707135703.4620 0.314 0.000 0.4051 0.314 0.4051
1707135703.4697 0.315 0.000 0.4067 0.315 0.4067
1707135703.4780 0.315 0.000 0.4113 0.315 0.4113
1707135703.4866 0.315 0.001 0.4191 0.315 0.4191
1707135703.4943 0.315 0.000 0.4253 0.315 0.4253
1707135703.5018 0.315 0.000 0.4269 0.315 0.4269
1707135703.5105 0.315 0.000 0.4300 0.315 0.4300
1707135703.5182 0.315 0.000 0.4331 0.315 0.4331
1707135703.5265 0.315 0.000 0.4393 0.315 0.4393
1707135703.5337 0.315 0.000 0.4424 0.315 0.4424
1707135703.5425 0.315 0.000 0.4439 0.315 0.4439
1707135703.5499 0.315 0.000 0.4455 0.315 0.4455
1707135703.5586 0.315 0.001 0.4502 0.315 0.4502
1707135703.5663 0.316 0.001 0.4564 0.316 0.4564
1707135703.5747 0.315 0.001 0.4626 0.315 0.4626
1707135703.5823 0.315 0.000 0.4657 0.315 0.4657
1707135703.5898 0.315 0.000 0.4672 0.315 0.4672
1707135703.5986 0.315 0.000 0.4688 0.315 0.4688
1707135703.6062 0.315 0.000 0.4734 0.315 0.4734
1707135703.6143 0.315 0.000 0.4796 0.315 0.4796
1707135703.6222 0.315 0.000 0.4874 0.315 0.4874
1707135703.6303 0.315 0.000 0.4874 0.315 0.4874
1707135703.6384 0.315 0.000 0.4874 0.315 0.4874
1707135703.6464 0.315 0.000 0.4874 0.315 0.4874
1707135703.6546 0.315 0.000 0.4921 0.315 0.4921
1707135703.6624 0.315 0.000 0.4998 0.315 0.4998
1707135703.6703 0.315 0.000 0.5076 0.315 0.5076
1707135703.6786 0.315 0.000 0.5107 0.315 0.5107
1707135703.6865 0.315 0.000 0.5122 0.315 0.5122
1707135703.6944 0.315 0.000 0.5153 0.315 0.5153
1707135703.7026 0.315 0.000 0.5200 0.315 0.5200
1707135703.7104 0.315 0.000 0.5262 0.315 0.5262
1707135703.7183 0.315 0.000 0.5293 0.315 0.5293
1707135703.7263 0.315 0.000 0.5309 0.315 0.5309
1707135703.7340 0.315 0.000 0.5309 0.315 0.5309
1707135703.7417 0.315 0.000 0.5340 0.315 0.5340
1707135703.7504 0.315 0.000 0.5448 0.315 0.5448
1707135703.7580 0.315 0.000 0.5542 0.315 0.5542
1707135703.7657 0.315 0.000 0.5573 0.315 0.5573
1707135703.7737 0.315 0.000 0.5573 0.315 0.5573
1707135703.7825 0.315 0.000 0.5604 0.315 0.5604
1707135703.7902 0.315 0.000 0.5650 0.315 0.5650
1707135703.7977 0.315 0.000 0.5728 0.315 0.5728
1707135703.8065 0.314 0.000 0.5759 0.314 0.5759
1707135703.8139 0.314 -0.000 0.5774 0.314 0.5774
1707135703.8226 0.314 -0.000 0.5805 0.314 0.5805
1707135703.8299 0.315 0.000 0.5852 0.315 0.5852
1707135703.8386 0.315 0.000 0.5914 0.315 0.5914
1707135703.8462 0.315 0.000 0.5945 0.315 0.5945
1707135703.8539 0.314 -0.000 0.5992 0.314 0.5992
1707135703.8624 0.314 -0.000 0.6038 0.314 0.6038
1707135703.8700 0.314 -0.000 0.6069 0.314 0.6069
1707135703.8783 0.314 0.000 0.6100 0.314 0.6100
1707135703.8860 0.314 0.000 0.6162 0.314 0.6162
1707135703.8947 0.314 -0.000 0.6225 0.314 0.6225
1707135703.9024 0.314 -0.000 0.6256 0.314 0.6256
1707135703.9099 0.314 -0.000 0.6271 0.314 0.6271
1707135703.9186 0.315 0.000 0.6333 0.315 0.6333
1707135703.9258 0.315 0.000 0.6395 0.315 0.6395
1707135703.9347 0.314 0.000 0.6442 0.314 0.6442
1707135703.9422 0.314 -0.000 0.6457 0.314 0.6457
1707135703.9497 0.314 0.000 0.6473 0.314 0.6473
1707135703.9585 0.315 0.000 0.6519 0.315 0.6519
1707135703.9661 0.315 0.001 0.6566 0.315 0.6566
1707135703.9743 0.315 0.000 0.6597 0.315 0.6597
1707135703.9820 0.314 0.000 0.6659 0.314 0.6659
1707135703.9906 0.314 -0.000 0.6706 0.314 0.6706
1707135703.9981 0.315 0.000 0.6752 0.315 0.6752
1707135704.0059 0.315 0.001 0.6783 0.315 0.6783
1707135704.0146 0.315 0.001 0.6783 0.315 0.6783
1707135704.0222 0.315 0.000 0.6814 0.315 0.6814
1707135704.0302 0.314 -0.000 0.6830 0.314 0.6830
1707135704.0387 0.314 -0.000 0.6877 0.314 0.6876
1707135704.0464 0.314 0.000 0.6939 0.314 0.6939
1707135704.0541 0.315 0.000 0.6970 0.315 0.6970
1707135704.0627 0.315 0.000 0.7001 0.315 0.7001
1707135704.0704 0.314 -0.000 0.7047 0.314 0.7047
1707135704.0778 0.314 -0.000 0.7094 0.314 0.7094
1707135704.0862 0.314 -0.000 0.7109 0.314 0.7109
1707135704.0939 0.314 -0.000 0.7171 0.314 0.7171
1707135704.1026 0.315 0.000 0.7234 0.315 0.7234
1707135704.1102 0.314 0.000 0.7280 0.314 0.7280
1707135704.1179 0.314 -0.000 0.7296 0.314 0.7296
1707135704.1262 0.314 0.000 0.7311 0.314 0.7311
1707135704.1347 0.314 0.000 0.7342 0.314 0.7342
1707135704.1423 0.315 0.000 0.7420 0.315 0.7420
1707135704.1500 0.314 0.000 0.7466 0.314 0.7466
1707135704.1586 0.314 -0.000 0.7513 0.314 0.7513
1707135704.1663 0.314 -0.000 0.7513 0.314 0.7513
1707135704.1744 0.315 0.000 0.7559 0.315 0.7559
1707135704.1820 0.315 0.000 0.7591 0.315 0.7591
1707135704.1897 0.314 0.000 0.7622 0.314 0.7622
1707135704.1985 0.314 -0.000 0.7684 0.314 0.7684
1707135704.2060 0.314 -0.000 0.7715 0.314 0.7715
1707135704.2137 0.314 0.000 0.7746 0.314 0.7746
1707135704.2223 0.315 0.000 0.7808 0.315 0.7808
1707135704.2306 0.315 0.000 0.7854 0.315 0.7854
1707135704.2383 0.314 -0.000 0.7917 0.314 0.7917
1707135704.2461 0.314 -0.000 0.7963 0.314 0.7963
1707135704.2547 0.314 0.000 0.7994 0.314 0.7994
1707135704.2624 0.315 0.000 0.8041 0.315 0.8041
1707135704.2700 0.315 0.000 0.8041 0.315 0.8041
1707135704.2783 0.315 0.000 0.8072 0.315 0.8072
1707135704.2860 0.314 -0.000 0.8118 0.314 0.8118
1707135704.2938 0.314 -0.000 0.8180 0.314 0.8180
1707135704.3024 0.314 0.000 0.8242 0.314 0.8242
1707135704.3099 0.315 0.000 0.8289 0.315 0.8289
1707135704.3177 0.315 0.000 0.8336 0.315 0.8336
1707135704.3259 0.314 0.000 0.8367 0.314 0.8367
1707135704.3347 0.314 -0.000 0.8382 0.314 0.8382
1707135704.3424 0.314 0.000 0.8398 0.314 0.8398
1707135704.3500 0.315 0.000 0.8460 0.315 0.8460
1707135704.3586 0.315 0.000 0.8522 0.315 0.8522
1707135704.3662 0.314 0.000 0.8584 0.314 0.8584
1707135704.3745 0.315 0.000 0.8600 0.315 0.8599
1707135704.3822 0.315 0.000 0.8600 0.315 0.8599
1707135704.3899 0.315 0.000 0.8631 0.315 0.8631
1707135704.3983 0.314 0.000 0.8677 0.314 0.8677
1707135704.4060 0.314 -0.000 0.8755 0.314 0.8755
1707135704.4137 0.314 0.000 0.8801 0.314 0.8801
1707135704.4224 0.314 0.000 0.8832 0.314 0.8832
1707135704.4307 0.314 0.000 0.8863 0.314 0.8863
1707135704.4384 0.314 0.000 0.8925 0.314 0.8925
1707135704.4458 0.314 -0.000 0.8972 0.314 0.8972
1707135704.4545 0.314 0.000 0.8988 0.314 0.8988
1707135704.4622 0.315 0.000 0.9003 0.315 0.9003
1707135704.4698 0.315 0.000 0.9050 0.315 0.9050
1707135704.4781 0.315 0.000 0.9112 0.315 0.9112
1707135704.4858 0.314 0.000 0.9143 0.314 0.9143
1707135704.4943 0.314 -0.000 0.9174 0.314 0.9174
1707135704.5020 0.314 -0.000 0.9189 0.314 0.9189
1707135704.5107 0.315 0.000 0.9236 0.315 0.9236
1707135704.5183 0.315 0.001 0.9314 0.315 0.9314
1707135704.5266 0.315 0.000 0.9360 0.315 0.9360
1707135704.5337 0.314 0.000 0.9422 0.314 0.9422
1707135704.5424 0.314 0.000 0.9453 0.314 0.9453
1707135704.5515 0.315 0.000 0.9469 0.315 0.9469
1707135704.5581 0.315 0.001 0.9500 0.315 0.9500
1707135704.5657 0.315 0.000 0.9531 0.315 0.9531
1707135704.5741 0.314 -0.000 0.9562 0.314 0.9562
1707135704.5827 0.314 -0.000 0.9640 0.314 0.9640
1707135704.5903 0.314 0.000 0.9702 0.314 0.9702
1707135704.5979 0.315 0.000 0.9733 0.315 0.9733
1707135704.6067 0.315 0.000 0.9779 0.315 0.9779
1707135704.6143 0.314 -0.000 0.9795 0.314 0.9795
