% Pose without folding and reset (log_20240219_143520.887/log_pose_abs.txt)
% 1 	Time (sec)
% 2,3 	Position x,y (m)
% 4 	heading (rad)
% 5 	Driven distance (m) - signed
% 6 	Turned angle (rad) - signed
1708349721.4995 0.000 0.000 0.0000 0.000 0.0000
1708349721.5069 0.000 0.000 0.0000 0.000 0.0000
1708349721.5143 0.000 0.000 0.0000 0.000 0.0000
1708349721.5224 0.000 0.000 0.0000 0.000 0.0000
1708349721.5311 0.000 0.000 0.0000 0.000 0.0000
1708349721.5388 0.000 0.000 0.0000 0.000 0.0000
1708349721.5466 0.000 0.000 0.0000 0.000 0.0000
1708349721.5543 0.000 0.000 0.0000 0.000 0.0000
1708349721.5627 0.000 0.000 0.0000 0.000 0.0000
1708349721.5707 0.000 0.000 0.0000 0.000 0.0000
1708349721.5787 0.000 0.000 0.0000 0.000 0.0000
1708349721.5869 0.000 0.000 0.0000 0.000 0.0000
1708349721.5942 0.000 0.000 0.0000 0.000 0.0000
1708349721.6024 0.000 0.000 0.0000 0.000 0.0000
1708349721.6102 0.000 0.000 0.0000 0.000 0.0000
1708349721.6183 0.000 0.000 0.0000 0.000 0.0000
1708349721.6269 0.000 0.000 0.0016 0.000 0.0016
1708349721.6344 0.001 0.000 0.0062 0.001 0.0062
1708349721.6443 0.002 0.000 0.0047 0.002 0.0047
1708349721.6506 0.003 0.000 0.0000 0.003 0.0000
1708349721.6587 0.004 0.000 0.0000 0.004 0.0000
1708349721.6664 0.005 0.000 0.0031 0.005 0.0031
1708349721.6751 0.005 0.000 0.0016 0.005 0.0016
1708349721.6829 0.007 0.000 0.0016 0.007 0.0016
1708349721.6994 0.008 0.000 0.0016 0.008 0.0016
1708349721.7017 0.010 0.000 0.0016 0.010 0.0016
1708349721.7064 0.012 0.000 0.0016 0.012 0.0016
1708349721.7226 0.013 0.000 0.0031 0.013 0.0031
1708349721.7318 0.014 0.000 0.0031 0.014 0.0031
1708349721.7403 0.015 0.000 0.0031 0.015 0.0031
1708349721.7497 0.018 0.000 0.0031 0.018 0.0031
1708349721.7548 0.021 0.000 0.0016 0.021 0.0016
1708349721.7643 0.023 0.000 0.0000 0.023 0.0000
1708349721.7714 0.024 0.000 0.0000 0.024 0.0000
1708349721.7797 0.025 0.000 -0.0016 0.025 -0.0016
1708349721.7994 0.028 0.000 -0.0016 0.028 -0.0016
1708349721.8005 0.031 0.000 0.0016 0.031 0.0016
1708349721.8029 0.034 0.000 0.0000 0.034 0.0000
1708349721.8133 0.035 0.000 0.0000 0.035 0.0000
1708349721.8277 0.033 0.000 0.0016 0.033 0.0016
1708349721.8301 0.033 0.000 -0.0016 0.033 -0.0016
1708349721.8591 0.035 0.000 -0.0047 0.035 -0.0047
1708349721.8613 0.038 0.000 -0.0047 0.038 -0.0047
1708349721.8661 0.041 0.000 -0.0031 0.041 -0.0031
1708349721.8801 0.045 0.000 -0.0047 0.045 -0.0047
1708349721.8823 0.049 -0.000 -0.0047 0.049 -0.0047
1708349721.8961 0.050 -0.000 -0.0016 0.050 -0.0016
1708349721.9076 0.049 -0.000 0.0000 0.049 -0.0000
1708349721.9138 0.048 -0.000 0.0000 0.048 -0.0000
1708349721.9209 0.047 -0.000 -0.0016 0.047 -0.0016
1708349721.9324 0.046 -0.000 -0.0047 0.046 -0.0047
1708349721.9373 0.045 -0.000 -0.0047 0.045 -0.0047
1708349721.9416 0.047 -0.000 -0.0047 0.047 -0.0047
1708349721.9447 0.049 -0.000 -0.0047 0.049 -0.0047
1708349721.9458 0.053 -0.000 -0.0031 0.053 -0.0031
1708349721.9495 0.056 -0.000 -0.0062 0.056 -0.0062
1708349721.9555 0.058 -0.000 -0.0062 0.058 -0.0062
1708349721.9631 0.056 -0.000 -0.0062 0.056 -0.0062
1708349721.9708 0.056 -0.000 -0.0062 0.056 -0.0062
1708349721.9789 0.058 -0.000 -0.0062 0.058 -0.0062
1708349721.9871 0.061 -0.000 -0.0047 0.061 -0.0047
1708349721.9951 0.063 -0.000 -0.0016 0.063 -0.0016
1708349722.0031 0.064 -0.000 -0.0016 0.064 -0.0016
1708349722.0103 0.066 -0.000 -0.0031 0.066 -0.0031
1708349722.0190 0.067 -0.000 -0.0016 0.067 -0.0016
1708349722.0268 0.069 -0.000 0.0000 0.069 0.0000
1708349722.0345 0.071 -0.000 -0.0016 0.071 -0.0016
1708349722.0424 0.072 -0.000 -0.0031 0.072 -0.0031
1708349722.0502 0.074 -0.000 -0.0031 0.074 -0.0031
1708349722.0583 0.075 -0.000 -0.0016 0.075 -0.0016
1708349722.0671 0.077 -0.000 0.0016 0.077 0.0016
1708349722.0749 0.080 -0.000 0.0000 0.080 0.0000
1708349722.0826 0.081 -0.000 -0.0031 0.081 -0.0031
1708349722.0904 0.083 -0.000 -0.0000 0.083 -0.0000
1708349722.0983 0.084 -0.000 -0.0000 0.084 -0.0000
1708349722.1064 0.087 -0.000 -0.0016 0.087 -0.0016
1708349722.1143 0.089 -0.000 -0.0031 0.089 -0.0031
1708349722.1223 0.090 -0.000 -0.0016 0.090 -0.0016
1708349722.1310 0.092 -0.000 -0.0000 0.092 -0.0000
1708349722.1387 0.095 -0.000 -0.0031 0.095 -0.0031
1708349722.1464 0.097 -0.000 -0.0000 0.097 -0.0000
1708349722.1552 0.099 -0.000 -0.0000 0.099 -0.0000
1708349722.1626 0.101 -0.000 -0.0016 0.101 -0.0016
1708349722.1705 0.104 -0.000 -0.0016 0.104 -0.0016
1708349722.1782 0.107 -0.000 -0.0000 0.107 -0.0000
1708349722.1862 0.108 -0.000 -0.0016 0.108 -0.0016
1708349722.1963 0.110 -0.000 -0.0031 0.110 -0.0031
1708349722.2028 0.113 -0.000 -0.0016 0.113 -0.0016
1708349722.2110 0.116 -0.000 -0.0000 0.116 -0.0000
1708349722.2182 0.118 -0.000 -0.0000 0.118 -0.0000
1708349722.2263 0.120 -0.000 -0.0000 0.120 -0.0000
1708349722.2347 0.122 -0.000 -0.0000 0.122 -0.0000
1708349722.2430 0.124 -0.000 0.0016 0.124 0.0016
1708349722.2509 0.128 -0.000 0.0016 0.128 0.0016
1708349722.2582 0.131 -0.000 -0.0000 0.131 -0.0000
1708349722.2664 0.133 -0.000 -0.0016 0.133 -0.0016
1708349722.2743 0.134 -0.000 -0.0000 0.134 -0.0000
1708349722.2830 0.137 -0.000 0.0016 0.137 0.0016
1708349722.2909 0.140 -0.000 -0.0000 0.140 -0.0000
1708349722.2985 0.142 -0.000 -0.0016 0.142 -0.0016
1708349722.3061 0.144 -0.000 -0.0016 0.144 -0.0016
1708349722.3144 0.146 -0.000 -0.0000 0.146 -0.0000
1708349722.3226 0.148 -0.000 -0.0000 0.148 -0.0000
1708349722.3305 0.151 -0.000 -0.0000 0.151 -0.0000
1708349722.3389 0.154 -0.000 -0.0016 0.154 -0.0016
1708349722.3470 0.156 -0.000 -0.0031 0.156 -0.0031
1708349722.3550 0.157 -0.000 -0.0016 0.157 -0.0016
1708349722.3624 0.160 -0.000 -0.0000 0.160 -0.0000
1708349722.3707 0.163 -0.000 -0.0000 0.163 -0.0000
1708349722.3790 0.166 -0.000 -0.0000 0.166 -0.0000
1708349722.3869 0.168 -0.000 0.0016 0.168 0.0016
1708349722.3946 0.170 -0.000 0.0016 0.170 0.0016
1708349722.4025 0.173 -0.000 -0.0000 0.173 -0.0000
1708349722.4110 0.175 -0.000 -0.0000 0.175 -0.0000
1708349722.4184 0.177 -0.000 0.0016 0.177 0.0016
1708349722.4264 0.180 -0.000 -0.0000 0.180 -0.0000
1708349722.4345 0.182 -0.000 -0.0016 0.182 -0.0016
1708349722.4422 0.185 -0.000 -0.0016 0.185 -0.0016
1708349722.4505 0.187 -0.000 -0.0000 0.187 -0.0000
1708349722.4592 0.189 -0.000 0.0016 0.189 0.0016
1708349722.4669 0.191 -0.000 -0.0016 0.191 -0.0016
1708349722.4748 0.194 -0.000 -0.0031 0.194 -0.0031
1708349722.4829 0.197 -0.000 -0.0000 0.197 -0.0000
1708349722.4902 0.199 -0.000 0.0031 0.199 0.0031
1708349722.4982 0.201 -0.000 0.0047 0.201 0.0047
1708349722.5077 0.203 -0.000 0.0016 0.203 0.0016
1708349722.5143 0.206 -0.000 -0.0016 0.206 -0.0016
1708349722.5222 0.209 -0.000 -0.0031 0.209 -0.0031
1708349722.5311 0.211 -0.000 -0.0000 0.211 -0.0000
1708349722.5388 0.213 -0.000 0.0031 0.213 0.0031
1708349722.5467 0.215 -0.000 0.0031 0.215 0.0031
1708349722.5548 0.218 -0.000 0.0016 0.218 0.0016
1708349722.5624 0.221 -0.000 -0.0031 0.221 -0.0031
1708349722.5704 0.223 -0.000 -0.0016 0.223 -0.0016
1708349722.5784 0.225 -0.000 0.0016 0.225 0.0016
1708349722.5872 0.227 -0.000 0.0031 0.227 0.0031
1708349722.5951 0.230 -0.000 0.0031 0.230 0.0031
1708349722.6030 0.233 -0.000 0.0000 0.233 0.0000
1708349722.6105 0.235 -0.000 -0.0016 0.235 -0.0016
1708349722.6184 0.237 -0.000 0.0000 0.237 0.0000
1708349722.6263 0.239 -0.000 0.0016 0.239 0.0016
1708349722.6352 0.242 -0.000 0.0031 0.242 0.0031
1708349722.6428 0.245 -0.000 0.0000 0.245 0.0000
1708349722.6508 0.247 -0.000 -0.0031 0.247 -0.0031
1708349722.6581 0.249 -0.000 -0.0016 0.249 -0.0016
1708349722.6671 0.251 -0.000 0.0000 0.251 0.0000
1708349722.6751 0.254 -0.000 0.0016 0.254 0.0016
1708349722.6827 0.257 -0.000 0.0016 0.257 0.0016
1708349722.6909 0.259 -0.000 -0.0016 0.259 -0.0016
1708349722.6991 0.261 -0.000 0.0000 0.261 0.0000
1708349722.7064 0.263 -0.000 0.0000 0.263 0.0000
1708349722.7143 0.266 -0.000 0.0016 0.266 0.0016
1708349722.7222 0.268 -0.000 0.0016 0.268 0.0016
1708349722.7310 0.271 -0.000 0.0016 0.271 0.0016
1708349722.7387 0.273 -0.000 0.0016 0.273 0.0016
1708349722.7466 0.275 -0.000 0.0016 0.275 0.0016
1708349722.7543 0.278 -0.000 0.0016 0.278 0.0016
1708349722.7630 0.280 -0.000 -0.0016 0.280 -0.0016
1708349722.7710 0.283 -0.000 -0.0031 0.283 -0.0031
1708349722.7785 0.285 -0.000 -0.0016 0.285 -0.0016
1708349722.7864 0.287 -0.000 0.0031 0.287 0.0031
1708349722.7944 0.290 -0.000 0.0016 0.290 0.0016
1708349722.8032 0.292 -0.000 -0.0016 0.292 -0.0016
1708349722.8105 0.294 -0.000 0.0016 0.294 0.0016
1708349722.8184 0.296 -0.000 0.0124 0.296 0.0124
1708349722.8271 0.299 -0.000 0.0233 0.299 0.0233
1708349722.8350 0.301 0.000 0.0279 0.301 0.0279
1708349722.8429 0.304 0.000 0.0357 0.304 0.0357
1708349722.8506 0.306 0.000 0.0481 0.306 0.0481
1708349722.8591 0.308 0.000 0.0652 0.308 0.0652
1708349722.8667 0.310 0.000 0.0823 0.310 0.0823
1708349722.8743 0.313 0.001 0.1009 0.313 0.1009
1708349722.8822 0.315 0.001 0.1195 0.315 0.1195
1708349722.8911 0.318 0.001 0.1382 0.318 0.1382
1708349722.8988 0.321 0.002 0.1583 0.321 0.1583
1708349722.9062 0.323 0.002 0.1770 0.323 0.1770
1708349722.9151 0.326 0.003 0.1971 0.326 0.1971
1708349722.9227 0.328 0.003 0.2189 0.328 0.2189
1708349722.9307 0.331 0.004 0.2422 0.331 0.2422
1708349722.9387 0.333 0.004 0.2639 0.334 0.2639
1708349722.9464 0.336 0.005 0.2856 0.336 0.2856
1708349722.9544 0.339 0.006 0.3089 0.339 0.3089
1708349722.9628 0.341 0.007 0.3306 0.342 0.3306
1708349722.9705 0.344 0.008 0.3539 0.345 0.3539
1708349722.9783 0.346 0.009 0.3772 0.348 0.3772
1708349722.9862 0.349 0.010 0.3974 0.350 0.3974
1708349722.9947 0.351 0.011 0.4191 0.353 0.4191
1708349723.0025 0.354 0.012 0.4424 0.356 0.4424
1708349723.0101 0.356 0.013 0.4672 0.359 0.4672
1708349723.0191 0.359 0.014 0.4890 0.361 0.4890
1708349723.0270 0.361 0.016 0.5076 0.363 0.5076
1708349723.0349 0.363 0.017 0.5309 0.366 0.5309
1708349723.0426 0.365 0.018 0.5511 0.369 0.5511
1708349723.0505 0.367 0.019 0.5697 0.371 0.5697
1708349723.0582 0.369 0.021 0.5868 0.373 0.5868
1708349723.0670 0.371 0.022 0.6023 0.375 0.6023
1708349723.0751 0.372 0.023 0.6131 0.377 0.6131
1708349723.0831 0.374 0.024 0.6209 0.379 0.6209
1708349723.0908 0.376 0.026 0.6256 0.382 0.6256
1708349723.0986 0.378 0.027 0.6302 0.384 0.6302
1708349723.1062 0.379 0.028 0.6364 0.386 0.6364
1708349723.1150 0.381 0.029 0.6395 0.388 0.6395
1708349723.1230 0.382 0.030 0.6364 0.390 0.6364
1708349723.1302 0.384 0.031 0.6333 0.392 0.6333
1708349723.1389 0.386 0.032 0.6302 0.393 0.6302
1708349723.1469 0.387 0.034 0.6271 0.395 0.6271
1708349723.1548 0.389 0.035 0.6209 0.397 0.6209
1708349723.1632 0.390 0.036 0.6131 0.399 0.6131
1708349723.1711 0.392 0.037 0.6069 0.402 0.6069
1708349723.1782 0.394 0.038 0.5992 0.404 0.5992
1708349723.1868 0.396 0.040 0.5914 0.406 0.5914
1708349723.1947 0.398 0.041 0.5821 0.408 0.5821
1708349723.2027 0.400 0.042 0.5712 0.411 0.5712
1708349723.2111 0.402 0.044 0.5619 0.413 0.5619
1708349723.2190 0.404 0.045 0.5542 0.415 0.5542
1708349723.2268 0.406 0.046 0.5479 0.418 0.5479
1708349723.2344 0.408 0.048 0.5386 0.421 0.5386
1708349723.2424 0.410 0.049 0.5293 0.423 0.5293
1708349723.2503 0.412 0.050 0.5262 0.425 0.5262
1708349723.2587 0.414 0.051 0.5216 0.427 0.5216
1708349723.2666 0.416 0.052 0.5153 0.430 0.5153
1708349723.2745 0.419 0.054 0.5060 0.433 0.5060
1708349723.2830 0.421 0.055 0.5014 0.435 0.5014
1708349723.2911 0.423 0.056 0.5014 0.437 0.5014
1708349723.3052 0.425 0.057 0.4967 0.440 0.4967
1708349723.3072 0.427 0.058 0.4936 0.442 0.4936
1708349723.3151 0.429 0.059 0.4890 0.445 0.4890
1708349723.3228 0.430 0.060 0.4859 0.445 0.4859
1708349723.3305 0.431 0.060 0.4859 0.446 0.4859
1708349723.3384 0.433 0.061 0.4874 0.449 0.4874
1708349723.3465 0.436 0.063 0.4859 0.452 0.4859
1708349723.3543 0.438 0.064 0.4859 0.454 0.4859
1708349723.3629 0.439 0.064 0.4859 0.456 0.4859
1708349723.3704 0.440 0.065 0.4828 0.457 0.4828
1708349723.3792 0.442 0.066 0.4828 0.460 0.4828
1708349723.3871 0.445 0.068 0.4843 0.462 0.4843
1708349723.3949 0.447 0.069 0.4859 0.465 0.4859
1708349723.4029 0.448 0.069 0.4859 0.466 0.4859
1708349723.4102 0.450 0.070 0.4828 0.468 0.4828
1708349723.4182 0.452 0.071 0.4828 0.471 0.4828
1708349723.4270 0.454 0.072 0.4843 0.473 0.4843
1708349723.4349 0.456 0.073 0.4843 0.475 0.4843
1708349723.4429 0.458 0.074 0.4828 0.477 0.4828
1708349723.4506 0.460 0.076 0.4828 0.480 0.4828
1708349723.4591 0.462 0.077 0.4828 0.482 0.4828
1708349723.4671 0.464 0.078 0.4843 0.484 0.4843
1708349723.4749 0.466 0.079 0.4859 0.486 0.4859
1708349723.4829 0.468 0.080 0.4843 0.489 0.4843
1708349723.4906 0.470 0.081 0.4843 0.491 0.4843
1708349723.4982 0.472 0.082 0.4859 0.493 0.4859
1708349723.5069 0.474 0.083 0.4874 0.496 0.4874
1708349723.5149 0.477 0.084 0.4843 0.498 0.4843
1708349723.5225 0.479 0.085 0.4843 0.501 0.4843
1708349723.5305 0.481 0.086 0.4890 0.503 0.4890
1708349723.5400 0.482 0.087 0.4905 0.505 0.4905
1708349723.5466 0.484 0.088 0.4874 0.507 0.4874
1708349723.5545 0.487 0.090 0.4828 0.510 0.4828
1708349723.5631 0.489 0.091 0.4859 0.512 0.4859
1708349723.5709 0.491 0.092 0.4890 0.515 0.4890
1708349723.5787 0.493 0.093 0.4874 0.517 0.4874
1708349723.5865 0.495 0.094 0.4828 0.519 0.4828
1708349723.5944 0.498 0.095 0.4843 0.522 0.4843
1708349723.6027 0.500 0.096 0.4890 0.524 0.4890
1708349723.6108 0.502 0.097 0.4905 0.527 0.4905
1708349723.6187 0.504 0.099 0.4874 0.529 0.4874
1708349723.6267 0.506 0.100 0.4843 0.531 0.4843
1708349723.6344 0.508 0.101 0.4843 0.534 0.4843
1708349723.6432 0.510 0.102 0.4890 0.537 0.4890
1708349723.6511 0.512 0.103 0.4905 0.538 0.4905
1708349723.6587 0.514 0.104 0.4874 0.541 0.4874
1708349723.6664 0.516 0.105 0.4828 0.543 0.4828
1708349723.6743 0.519 0.106 0.4843 0.546 0.4843
1708349723.6823 0.521 0.108 0.4874 0.548 0.4874
1708349723.6907 0.522 0.108 0.4859 0.550 0.4859
1708349723.7067 0.524 0.110 0.4828 0.552 0.4828
1708349723.7099 0.527 0.111 0.4812 0.555 0.4812
1708349723.7143 0.530 0.112 0.4812 0.558 0.4812
1708349723.7231 0.531 0.113 0.4828 0.560 0.4828
1708349723.7311 0.531 0.113 0.4843 0.560 0.4843
1708349723.7388 0.533 0.114 0.4843 0.562 0.4843
1708349723.7466 0.536 0.115 0.4828 0.565 0.4828
1708349723.7545 0.538 0.117 0.4828 0.567 0.4828
1708349723.7630 0.539 0.117 0.4843 0.569 0.4843
1708349723.7706 0.541 0.118 0.4843 0.571 0.4843
1708349723.7785 0.543 0.119 0.4828 0.573 0.4828
1708349723.7864 0.545 0.120 0.4828 0.576 0.4828
1708349723.7942 0.547 0.121 0.4828 0.578 0.4828
1708349723.8021 0.549 0.122 0.4843 0.580 0.4843
1708349723.8105 0.550 0.123 0.4828 0.581 0.4828
1708349723.8181 0.552 0.124 0.4812 0.584 0.4812
1708349723.8270 0.555 0.125 0.4828 0.587 0.4828
1708349723.8347 0.556 0.126 0.4843 0.588 0.4843
1708349723.8426 0.558 0.127 0.4828 0.590 0.4828
1708349723.8506 0.560 0.128 0.4796 0.592 0.4796
1708349723.8589 0.562 0.129 0.4781 0.594 0.4781
1708349723.8672 0.564 0.130 0.4812 0.597 0.4812
1708349723.8751 0.566 0.131 0.4843 0.600 0.4843
1708349723.8828 0.568 0.132 0.4828 0.602 0.4828
1708349723.8908 0.570 0.134 0.4765 0.604 0.4765
1708349723.8986 0.572 0.135 0.4765 0.606 0.4765
1708349723.9068 0.574 0.136 0.4843 0.609 0.4843
1708349723.9146 0.577 0.137 0.4859 0.611 0.4859
1708349723.9226 0.579 0.138 0.4828 0.614 0.4828
1708349723.9302 0.581 0.139 0.4796 0.616 0.4796
1708349723.9391 0.583 0.140 0.4843 0.618 0.4843
1708349723.9467 0.585 0.141 0.4905 0.620 0.4905
1708349723.9544 0.587 0.142 0.4905 0.623 0.4905
1708349723.9630 0.589 0.144 0.4843 0.626 0.4843
1708349723.9708 0.591 0.144 0.4812 0.628 0.4812
1708349723.9786 0.593 0.146 0.4859 0.630 0.4859
1708349723.9869 0.596 0.147 0.4905 0.633 0.4905
1708349723.9949 0.598 0.148 0.4874 0.636 0.4874
1708349724.0026 0.600 0.149 0.4828 0.638 0.4828
1708349724.0108 0.602 0.150 0.4843 0.640 0.4843
1708349724.0183 0.604 0.151 0.4874 0.642 0.4874
1708349724.0265 0.607 0.153 0.4890 0.645 0.4890
1708349724.0342 0.609 0.154 0.4859 0.648 0.4859
1708349724.0436 0.611 0.155 0.4843 0.650 0.4843
1708349724.0505 0.612 0.156 0.4843 0.652 0.4843
1708349724.0600 0.615 0.157 0.4859 0.654 0.4859
1708349724.0670 0.617 0.158 0.4859 0.657 0.4859
1708349724.0748 0.620 0.160 0.4874 0.660 0.4874
1708349724.0826 0.622 0.161 0.4859 0.662 0.4859
1708349724.0907 0.623 0.161 0.4859 0.664 0.4859
1708349724.0991 0.625 0.163 0.4859 0.666 0.4859
1708349724.1068 0.628 0.164 0.4859 0.669 0.4859
1708349724.1159 0.630 0.165 0.4843 0.672 0.4843
1708349724.1231 0.632 0.166 0.4859 0.674 0.4859
1708349724.1311 0.634 0.167 0.4874 0.676 0.4874
1708349724.1382 0.636 0.168 0.4859 0.678 0.4859
1708349724.1471 0.638 0.169 0.4859 0.681 0.4859
1708349724.1546 0.640 0.170 0.4859 0.683 0.4859
1708349724.1623 0.642 0.172 0.4874 0.686 0.4874
1708349724.1713 0.644 0.173 0.4859 0.688 0.4859
1708349724.1786 0.646 0.174 0.4828 0.690 0.4828
1708349724.1866 0.649 0.175 0.4828 0.693 0.4828
1708349724.1944 0.651 0.176 0.4859 0.695 0.4859
1708349724.2025 0.652 0.177 0.4874 0.697 0.4874
1708349724.2107 0.654 0.178 0.4859 0.699 0.4859
1708349724.2235 0.657 0.179 0.4828 0.702 0.4828
1708349724.2276 0.659 0.181 0.4843 0.705 0.4843
1708349724.2351 0.662 0.182 0.4843 0.708 0.4843
1708349724.2428 0.663 0.183 0.4828 0.709 0.4828
1708349724.2508 0.665 0.183 0.4843 0.711 0.4843
1708349724.2590 0.667 0.184 0.4843 0.713 0.4843
1708349724.2669 0.669 0.186 0.4843 0.716 0.4843
1708349724.2742 0.672 0.187 0.4828 0.719 0.4828
1708349724.2823 0.674 0.188 0.4828 0.721 0.4828
1708349724.2912 0.675 0.189 0.4843 0.722 0.4843
1708349724.2992 0.677 0.190 0.4843 0.725 0.4843
1708349724.3078 0.680 0.191 0.4843 0.728 0.4843
1708349724.3203 0.683 0.193 0.4828 0.731 0.4828
1708349724.3228 0.684 0.194 0.4812 0.733 0.4812
1708349724.3307 0.686 0.194 0.4812 0.734 0.4812
1708349724.3385 0.686 0.195 0.4843 0.735 0.4843
1708349724.3465 0.688 0.196 0.4843 0.737 0.4843
1708349724.3545 0.691 0.197 0.4843 0.740 0.4843
1708349724.3632 0.693 0.198 0.4843 0.743 0.4843
1708349724.3758 0.695 0.199 0.4843 0.745 0.4843
1708349724.3798 0.696 0.200 0.4859 0.747 0.4859
1708349724.3867 0.698 0.201 0.4828 0.748 0.4828
1708349724.3969 0.699 0.201 0.4828 0.749 0.4828
1708349724.4029 0.701 0.202 0.4843 0.752 0.4843
1708349724.4104 0.704 0.204 0.4843 0.755 0.4843
1708349724.4183 0.706 0.205 0.4828 0.757 0.4828
1708349724.4262 0.707 0.205 0.4812 0.759 0.4812
1708349724.4351 0.708 0.206 0.4828 0.760 0.4828
1708349724.4428 0.711 0.207 0.4843 0.763 0.4843
1708349724.4509 0.714 0.209 0.4843 0.766 0.4843
1708349724.4583 0.715 0.210 0.4828 0.768 0.4828
1708349724.4672 0.716 0.210 0.4828 0.769 0.4828
1708349724.4750 0.718 0.212 0.4828 0.772 0.4828
1708349724.4828 0.721 0.213 0.4812 0.775 0.4812
1708349724.4914 0.723 0.214 0.4828 0.777 0.4828
1708349724.4983 0.725 0.215 0.4843 0.779 0.4843
1708349724.5066 0.727 0.216 0.4843 0.781 0.4843
1708349724.5151 0.729 0.217 0.4828 0.784 0.4828
1708349724.5230 0.732 0.219 0.4828 0.787 0.4828
1708349724.5307 0.734 0.219 0.4843 0.789 0.4843
1708349724.5384 0.735 0.220 0.4828 0.791 0.4828
1708349724.5464 0.738 0.222 0.4843 0.793 0.4843
1708349724.5585 0.740 0.223 0.4828 0.796 0.4828
1708349724.5627 0.743 0.224 0.4812 0.799 0.4812
1708349724.5703 0.745 0.226 0.4796 0.802 0.4796
1708349724.5791 0.747 0.226 0.4828 0.803 0.4828
1708349724.5870 0.748 0.227 0.4874 0.805 0.4874
1708349724.5948 0.750 0.228 0.4859 0.807 0.4859
1708349724.6024 0.753 0.230 0.4828 0.810 0.4828
1708349724.6109 0.755 0.231 0.4812 0.813 0.4812
1708349724.6187 0.757 0.232 0.4828 0.815 0.4828
1708349724.6263 0.758 0.232 0.4874 0.817 0.4874
1708349724.6342 0.761 0.234 0.4890 0.819 0.4890
1708349724.6424 0.763 0.235 0.4843 0.822 0.4843
1708349724.6512 0.765 0.236 0.4828 0.824 0.4828
1708349724.6585 0.767 0.237 0.4843 0.826 0.4843
1708349724.6671 0.769 0.238 0.4874 0.829 0.4874
1708349724.6747 0.772 0.239 0.4859 0.832 0.4859
1708349724.6825 0.774 0.241 0.4828 0.834 0.4828
1708349724.6903 0.776 0.242 0.4828 0.836 0.4828
1708349724.6988 0.777 0.242 0.4843 0.838 0.4843
1708349724.7064 0.779 0.243 0.4859 0.840 0.4859
1708349724.7146 0.782 0.245 0.4843 0.843 0.4843
1708349724.7223 0.784 0.246 0.4828 0.846 0.4828
1708349724.7306 0.786 0.247 0.4843 0.848 0.4843
1708349724.7385 0.787 0.248 0.4874 0.849 0.4874
1708349724.7462 0.790 0.249 0.4890 0.852 0.4890
