% Pose without folding and reset (log_20240308_171104.293/log_pose_abs.txt)
% 1 	Time (sec)
% 2,3 	Position x,y (m)
% 4 	heading (rad)
% 5 	Driven distance (m) - signed
% 6 	Turned angle (rad) - signed
1709914264.9655 0.000 0.000 0.0000 0.000 0.0000
1709914264.9745 0.000 0.000 0.0000 0.000 0.0000
1709914264.9801 0.000 0.000 0.0000 0.000 0.0000
1709914264.9885 0.000 0.000 0.0000 0.000 0.0000
1709914264.9970 0.000 0.000 0.0000 0.000 0.0000
1709914265.0042 0.000 0.000 0.0000 0.000 0.0000
1709914265.0121 0.000 0.000 0.0000 0.000 0.0000
1709914265.0211 0.000 0.000 0.0000 0.000 0.0000
1709914265.0282 0.000 0.000 0.0000 0.000 0.0000
1709914265.0363 0.000 0.000 0.0000 0.000 0.0000
1709914265.0450 0.000 0.000 0.0000 0.000 0.0000
1709914265.0531 0.000 0.000 0.0000 0.000 0.0000
1709914265.0600 0.000 0.000 0.0000 0.000 0.0000
1709914265.0687 0.000 0.000 0.0000 0.000 0.0000
1709914265.0764 0.000 0.000 0.0000 0.000 0.0000
1709914265.0844 0.000 0.000 0.0000 0.000 0.0000
1709914265.0925 0.000 0.000 0.0000 0.000 0.0000
1709914265.1008 0.002 0.000 0.0016 0.002 0.0016
1709914265.1089 0.004 0.000 0.0031 0.004 0.0031
1709914265.1172 0.006 0.000 0.0031 0.006 0.0031
1709914265.1244 0.007 0.000 0.0031 0.007 0.0031
1709914265.1324 0.008 0.000 0.0031 0.008 0.0031
1709914265.1408 0.010 0.000 0.0031 0.010 0.0031
1709914265.1480 0.012 0.000 0.0016 0.012 0.0016
1709914265.1561 0.014 0.000 0.0031 0.014 0.0031
1709914265.1645 0.016 0.000 0.0031 0.016 0.0031
1709914265.1730 0.018 0.000 0.0047 0.018 0.0047
1709914265.1810 0.021 0.000 0.0031 0.021 0.0031
1709914265.1884 0.024 0.000 0.0047 0.024 0.0047
1709914265.1970 0.027 0.000 0.0062 0.027 0.0062
1709914265.2051 0.030 0.000 0.0062 0.030 0.0062
1709914265.2123 0.033 0.000 0.0078 0.033 0.0078
1709914265.2214 0.036 0.000 0.0062 0.036 0.0062
1709914265.2285 0.039 0.000 0.0047 0.039 0.0047
1709914265.2370 0.043 0.000 0.0031 0.043 0.0031
1709914265.2446 0.046 0.000 0.0047 0.046 0.0047
1709914265.2525 0.049 0.000 0.0062 0.049 0.0062
1709914265.2609 0.053 0.000 0.0062 0.053 0.0062
1709914265.2683 0.056 0.000 0.0016 0.056 0.0016
1709914265.2761 0.060 0.000 0.0000 0.060 0.0000
1709914265.2845 0.063 0.000 0.0016 0.063 0.0016
1709914265.2929 0.066 0.000 0.0047 0.066 0.0047
1709914265.3007 0.069 0.000 0.0047 0.069 0.0047
1709914265.3083 0.073 0.000 0.0016 0.073 0.0016
1709914265.3167 0.077 0.000 0.0031 0.077 0.0031
1709914265.3244 0.080 0.000 0.0047 0.080 0.0047
1709914265.3328 0.083 0.000 0.0031 0.083 0.0031
1709914265.3403 0.086 0.000 0.0031 0.086 0.0031
1709914265.3482 0.089 0.000 0.0047 0.089 0.0047
1709914265.3566 0.093 0.000 0.0078 0.093 0.0078
1709914265.3651 0.096 0.000 0.0078 0.096 0.0078
1709914265.3729 0.099 0.000 0.0047 0.099 0.0047
1709914265.3802 0.102 0.000 0.0047 0.102 0.0047
1709914265.3887 0.106 0.000 0.0062 0.106 0.0062
1709914265.3967 0.109 0.000 0.0093 0.109 0.0093
1709914265.4041 0.112 0.000 0.0078 0.112 0.0078
1709914265.4126 0.115 0.001 0.0062 0.115 0.0062
1709914265.4214 0.118 0.001 0.0062 0.118 0.0062
1709914265.4306 0.122 0.001 0.0078 0.122 0.0078
1709914265.4369 0.125 0.001 0.0062 0.125 0.0062
1709914265.4449 0.128 0.001 0.0047 0.128 0.0047
1709914265.4530 0.131 0.001 0.0047 0.131 0.0047
1709914265.4604 0.134 0.001 0.0047 0.134 0.0047
1709914265.4685 0.137 0.001 0.0062 0.137 0.0062
1709914265.4772 0.141 0.001 0.0047 0.141 0.0047
1709914265.4844 0.144 0.001 0.0047 0.144 0.0047
1709914265.4923 0.147 0.001 0.0047 0.147 0.0047
1709914265.5006 0.149 0.001 0.0031 0.149 0.0031
1709914265.5080 0.153 0.001 0.0016 0.153 0.0016
1709914265.5170 0.156 0.001 0.0016 0.156 0.0016
1709914265.5248 0.159 0.001 0.0031 0.159 0.0031
1709914265.5321 0.162 0.001 -0.0016 0.162 -0.0016
1709914265.5410 0.164 0.001 -0.0047 0.164 -0.0047
1709914265.5482 0.167 0.001 -0.0031 0.167 -0.0031
1709914265.5565 0.170 0.001 -0.0047 0.170 -0.0047
1709914265.5644 0.174 0.001 -0.0062 0.174 -0.0062
1709914265.5722 0.177 0.001 -0.0047 0.177 -0.0047
1709914265.5807 0.180 0.001 -0.0031 0.180 -0.0031
1709914265.5887 0.184 0.001 -0.0062 0.184 -0.0062
1709914265.5963 0.187 0.001 -0.0093 0.187 -0.0093
1709914265.6046 0.191 0.001 -0.0109 0.191 -0.0109
1709914265.6124 0.194 0.001 -0.0093 0.194 -0.0093
1709914265.6214 0.197 0.000 -0.0124 0.197 -0.0124
1709914265.6287 0.201 0.000 -0.0155 0.201 -0.0155
1709914265.6367 0.205 0.000 -0.0186 0.205 -0.0186
1709914265.6450 0.208 0.000 -0.0186 0.208 -0.0186
1709914265.6522 0.211 0.000 -0.0202 0.211 -0.0202
1709914265.6609 0.215 0.000 -0.0217 0.215 -0.0217
1709914265.6682 0.218 0.000 -0.0217 0.218 -0.0217
1709914265.6762 0.221 0.000 -0.0217 0.221 -0.0217
1709914265.6841 0.224 -0.000 -0.0217 0.224 -0.0217
1709914265.6924 0.227 -0.000 -0.0233 0.227 -0.0233
1709914265.7007 0.230 -0.000 -0.0248 0.230 -0.0248
1709914265.7084 0.233 -0.000 -0.0248 0.233 -0.0248
1709914265.7168 0.236 -0.000 -0.0233 0.236 -0.0233
1709914265.7247 0.240 -0.000 -0.0217 0.240 -0.0217
1709914265.7327 0.243 -0.000 -0.0217 0.243 -0.0217
1709914265.7410 0.246 -0.001 -0.0233 0.246 -0.0233
1709914265.7483 0.249 -0.001 -0.0233 0.249 -0.0233
1709914265.7562 0.252 -0.001 -0.0217 0.252 -0.0217
1709914265.7646 0.255 -0.001 -0.0217 0.255 -0.0217
1709914265.7728 0.258 -0.001 -0.0202 0.258 -0.0202
1709914265.7809 0.262 -0.001 -0.0217 0.262 -0.0217
1709914265.7883 0.265 -0.001 -0.0233 0.265 -0.0233
1709914265.7966 0.268 -0.001 -0.0186 0.268 -0.0186
1709914265.8046 0.271 -0.001 -0.0171 0.271 -0.0171
1709914265.8130 0.274 -0.001 -0.0171 0.274 -0.0171
1709914265.8212 0.277 -0.001 -0.0186 0.277 -0.0186
1709914265.8282 0.281 -0.001 -0.0171 0.281 -0.0171
1709914265.8377 0.284 -0.001 -0.0140 0.284 -0.0140
1709914265.8442 0.286 -0.001 -0.0140 0.286 -0.0140
1709914265.8522 0.290 -0.001 -0.0140 0.290 -0.0140
1709914265.8607 0.293 -0.001 -0.0124 0.293 -0.0124
1709914265.8690 0.297 -0.001 -0.0109 0.297 -0.0109
1709914265.8768 0.300 -0.001 -0.0093 0.300 -0.0093
1709914265.8841 0.303 -0.002 -0.0078 0.303 -0.0078
1709914265.8926 0.307 -0.002 -0.0062 0.307 -0.0062
1709914265.9008 0.310 -0.002 -0.0047 0.310 -0.0047
1709914265.9081 0.313 -0.002 -0.0031 0.313 -0.0031
1709914265.9168 0.316 -0.002 0.0000 0.316 0.0000
1709914265.9247 0.320 -0.002 0.0047 0.320 0.0047
1709914265.9329 0.323 -0.002 0.0047 0.323 0.0047
1709914265.9400 0.326 -0.002 0.0047 0.326 0.0047
1709914265.9490 0.329 -0.002 0.0047 0.329 0.0047
1709914265.9562 0.332 -0.002 0.0078 0.332 0.0078
1709914265.9645 0.335 -0.001 0.0109 0.335 0.0109
1709914265.9731 0.338 -0.001 0.0093 0.338 0.0093
1709914265.9804 0.341 -0.001 0.0078 0.341 0.0078
1709914265.9888 0.344 -0.001 0.0078 0.344 0.0078
1709914265.9968 0.347 -0.001 0.0109 0.347 0.0109
1709914266.0041 0.350 -0.001 0.0109 0.350 0.0109
1709914266.0125 0.353 -0.001 0.0109 0.353 0.0109
1709914266.0209 0.356 -0.001 0.0124 0.356 0.0124
1709914266.0281 0.359 -0.001 0.0155 0.359 0.0155
1709914266.0364 0.362 -0.001 0.0155 0.362 0.0155
1709914266.0443 0.365 -0.001 0.0186 0.366 0.0186
1709914266.0526 0.368 -0.001 0.0202 0.368 0.0202
1709914266.0610 0.372 -0.001 0.0217 0.372 0.0217
1709914266.0687 0.376 -0.001 0.0217 0.376 0.0217
1709914266.0766 0.379 -0.001 0.0233 0.379 0.0233
1709914266.0840 0.381 -0.001 0.0248 0.381 0.0248
1709914266.0922 0.384 -0.001 0.0248 0.384 0.0248
1709914266.1006 0.388 -0.001 0.0248 0.388 0.0248
1709914266.1086 0.392 -0.001 0.0279 0.392 0.0279
1709914266.1166 0.395 -0.000 0.0295 0.395 0.0295
1709914266.1246 0.398 -0.000 0.0310 0.398 0.0310
1709914266.1331 0.401 -0.000 0.0310 0.401 0.0310
1709914266.1410 0.405 -0.000 0.0310 0.405 0.0310
1709914266.1482 0.408 -0.000 0.0310 0.409 0.0310
1709914266.1564 0.411 0.000 0.0310 0.412 0.0310
1709914266.1643 0.414 0.000 0.0326 0.414 0.0326
1709914266.1724 0.418 0.000 0.0341 0.418 0.0341
1709914266.1807 0.421 0.000 0.0341 0.421 0.0341
1709914266.1887 0.424 0.001 0.0326 0.424 0.0326
1709914266.1968 0.427 0.001 0.0326 0.427 0.0326
1709914266.2041 0.431 0.001 0.0357 0.431 0.0357
1709914266.2121 0.434 0.001 0.0373 0.434 0.0373
1709914266.2211 0.437 0.001 0.0373 0.437 0.0373
1709914266.2285 0.440 0.001 0.0373 0.440 0.0373
1709914266.2364 0.444 0.001 0.0373 0.444 0.0373
1709914266.2445 0.447 0.001 0.0388 0.447 0.0388
1709914266.2531 0.450 0.001 0.0404 0.450 0.0404
1709914266.2610 0.452 0.002 0.0388 0.452 0.0388
1709914266.2683 0.456 0.002 0.0373 0.456 0.0373
1709914266.2761 0.459 0.002 0.0419 0.459 0.0419
1709914266.2841 0.462 0.002 0.0435 0.462 0.0435
1709914266.2922 0.465 0.002 0.0419 0.465 0.0419
1709914266.3007 0.468 0.002 0.0388 0.468 0.0388
1709914266.3085 0.472 0.002 0.0404 0.472 0.0404
1709914266.3168 0.475 0.002 0.0435 0.475 0.0435
1709914266.3246 0.477 0.003 0.0435 0.478 0.0435
1709914266.3325 0.481 0.003 0.0419 0.481 0.0419
1709914266.3407 0.484 0.003 0.0419 0.484 0.0419
1709914266.3491 0.487 0.003 0.0450 0.488 0.0450
1709914266.3570 0.490 0.003 0.0450 0.491 0.0450
1709914266.3644 0.494 0.003 0.0435 0.494 0.0435
1709914266.3723 0.497 0.003 0.0435 0.497 0.0435
1709914266.3810 0.500 0.004 0.0450 0.500 0.0450
1709914266.3883 0.503 0.004 0.0466 0.503 0.0466
1709914266.3966 0.506 0.004 0.0466 0.506 0.0466
1709914266.4046 0.509 0.004 0.0435 0.510 0.0435
1709914266.4129 0.512 0.004 0.0435 0.513 0.0435
1709914266.4208 0.516 0.004 0.0481 0.516 0.0481
1709914266.4286 0.519 0.004 0.0512 0.519 0.0512
1709914266.4369 0.522 0.005 0.0466 0.522 0.0466
1709914266.4441 0.525 0.005 0.0435 0.525 0.0435
1709914266.4528 0.529 0.005 0.0450 0.529 0.0450
1709914266.4649 0.532 0.005 0.0497 0.532 0.0497
1709914266.4688 0.535 0.005 0.0512 0.535 0.0512
1709914266.4766 0.538 0.005 0.0497 0.539 0.0497
1709914266.4841 0.541 0.005 0.0466 0.541 0.0466
1709914266.4924 0.543 0.006 0.0481 0.543 0.0481
1709914266.5003 0.547 0.006 0.0512 0.547 0.0512
1709914266.5086 0.551 0.006 0.0528 0.551 0.0528
1709914266.5167 0.554 0.006 0.0528 0.554 0.0528
1709914266.5246 0.557 0.006 0.0512 0.557 0.0512
1709914266.5324 0.559 0.006 0.0528 0.559 0.0528
1709914266.5408 0.562 0.007 0.0528 0.562 0.0528
1709914266.5488 0.566 0.007 0.0559 0.566 0.0559
1709914266.5570 0.569 0.007 0.0559 0.570 0.0559
1709914266.5643 0.572 0.007 0.0543 0.572 0.0543
1709914266.5729 0.575 0.007 0.0543 0.575 0.0543
1709914266.5805 0.578 0.007 0.0574 0.578 0.0574
1709914266.5891 0.582 0.008 0.0605 0.582 0.0605
1709914266.5960 0.585 0.008 0.0574 0.585 0.0574
1709914266.6044 0.588 0.008 0.0559 0.588 0.0559
1709914266.6127 0.590 0.008 0.0559 0.591 0.0559
1709914266.6217 0.594 0.008 0.0574 0.594 0.0574
1709914266.6290 0.597 0.009 0.0605 0.598 0.0605
1709914266.6365 0.601 0.009 0.0590 0.601 0.0590
1709914266.6447 0.604 0.009 0.0590 0.604 0.0590
1709914266.6530 0.606 0.009 0.0574 0.606 0.0574
1709914266.6604 0.609 0.009 0.0590 0.610 0.0590
1709914266.6685 0.613 0.009 0.0605 0.613 0.0605
1709914266.6766 0.616 0.010 0.0605 0.617 0.0605
1709914266.6851 0.619 0.010 0.0621 0.620 0.0621
1709914266.6921 0.622 0.010 0.0605 0.623 0.0605
1709914266.7005 0.625 0.010 0.0605 0.626 0.0605
1709914266.7091 0.629 0.010 0.0636 0.629 0.0636
1709914266.7170 0.632 0.011 0.0636 0.632 0.0636
1709914266.7250 0.635 0.011 0.0621 0.636 0.0621
1709914266.7324 0.638 0.011 0.0590 0.639 0.0590
1709914266.7411 0.641 0.011 0.0590 0.642 0.0590
1709914266.7483 0.644 0.011 0.0636 0.645 0.0636
1709914266.7567 0.648 0.012 0.0636 0.648 0.0636
1709914266.7647 0.651 0.012 0.0605 0.651 0.0605
1709914266.7727 0.654 0.012 0.0605 0.654 0.0605
1709914266.7810 0.657 0.012 0.0636 0.657 0.0636
1709914266.7887 0.660 0.012 0.0652 0.661 0.0652
1709914266.7969 0.664 0.013 0.0636 0.664 0.0636
1709914266.8043 0.667 0.013 0.0636 0.667 0.0636
1709914266.8131 0.670 0.013 0.0636 0.670 0.0636
1709914266.8211 0.673 0.013 0.0636 0.673 0.0636
1709914266.8281 0.676 0.013 0.0621 0.677 0.0621
1709914266.8371 0.680 0.014 0.0636 0.680 0.0636
1709914266.8443 0.682 0.014 0.0652 0.683 0.0652
1709914266.8527 0.686 0.014 0.0636 0.686 0.0636
1709914266.8607 0.689 0.014 0.0605 0.689 0.0605
1709914266.8689 0.692 0.014 0.0590 0.693 0.0590
1709914266.8768 0.696 0.015 0.0621 0.696 0.0621
1709914266.8846 0.699 0.015 0.0621 0.699 0.0621
1709914266.8930 0.702 0.015 0.0605 0.702 0.0605
1709914266.9004 0.705 0.015 0.0590 0.705 0.0590
1709914266.9086 0.708 0.015 0.0605 0.709 0.0605
1709914266.9168 0.711 0.016 0.0605 0.712 0.0605
1709914266.9249 0.714 0.016 0.0605 0.715 0.0605
1709914266.9330 0.718 0.016 0.0574 0.718 0.0574
1709914266.9404 0.721 0.016 0.0574 0.722 0.0574
1709914266.9490 0.724 0.016 0.0590 0.725 0.0590
1709914266.9569 0.727 0.017 0.0605 0.727 0.0605
1709914266.9651 0.730 0.017 0.0621 0.731 0.0621
1709914266.9722 0.734 0.017 0.0605 0.734 0.0605
1709914266.9802 0.737 0.017 0.0574 0.738 0.0574
1709914266.9886 0.740 0.017 0.0574 0.740 0.0574
1709914266.9970 0.743 0.017 0.0621 0.743 0.0621
1709914267.0042 0.746 0.018 0.0636 0.747 0.0636
1709914267.0125 0.750 0.018 0.0621 0.750 0.0621
1709914267.0218 0.753 0.018 0.0605 0.753 0.0605
1709914267.0291 0.756 0.018 0.0605 0.756 0.0605
1709914267.0364 0.759 0.019 0.0636 0.760 0.0636
1709914267.0449 0.763 0.019 0.0621 0.763 0.0621
1709914267.0529 0.765 0.019 0.0605 0.766 0.0605
1709914267.0601 0.768 0.019 0.0605 0.769 0.0605
1709914267.0687 0.772 0.019 0.0621 0.772 0.0621
1709914267.0766 0.775 0.019 0.0636 0.775 0.0636
1709914267.0851 0.778 0.020 0.0636 0.778 0.0636
1709914267.0925 0.781 0.020 0.0605 0.781 0.0605
1709914267.1005 0.784 0.020 0.0574 0.785 0.0574
1709914267.1088 0.788 0.020 0.0605 0.788 0.0605
1709914267.1163 0.791 0.020 0.0621 0.791 0.0621
1709914267.1251 0.794 0.021 0.0621 0.794 0.0621
1709914267.1324 0.797 0.021 0.0590 0.797 0.0590
1709914267.1409 0.800 0.021 0.0605 0.801 0.0605
1709914267.1489 0.803 0.021 0.0621 0.804 0.0621
1709914267.1563 0.807 0.021 0.0590 0.807 0.0590
1709914267.1649 0.810 0.022 0.0559 0.810 0.0559
1709914267.1725 0.813 0.022 0.0559 0.813 0.0559
1709914267.1809 0.816 0.022 0.0590 0.817 0.0590
1709914267.1881 0.819 0.022 0.0605 0.820 0.0605
1709914267.1961 0.822 0.022 0.0590 0.823 0.0590
1709914267.2049 0.825 0.022 0.0559 0.826 0.0559
1709914267.2124 0.828 0.023 0.0574 0.829 0.0574
1709914267.2212 0.832 0.023 0.0590 0.832 0.0590
1709914267.2284 0.835 0.023 0.0574 0.836 0.0574
1709914267.2369 0.838 0.023 0.0574 0.839 0.0574
1709914267.2448 0.841 0.023 0.0559 0.842 0.0559
1709914267.2523 0.844 0.024 0.0574 0.845 0.0574
1709914267.2607 0.848 0.024 0.0590 0.848 0.0590
1709914267.2686 0.851 0.024 0.0574 0.852 0.0574
1709914267.2777 0.854 0.024 0.0559 0.854 0.0559
1709914267.2842 0.857 0.024 0.0559 0.857 0.0559
1709914267.2922 0.860 0.024 0.0559 0.861 0.0559
1709914267.3005 0.863 0.025 0.0574 0.864 0.0574
1709914267.3089 0.866 0.025 0.0559 0.866 0.0559
1709914267.3169 0.869 0.025 0.0528 0.870 0.0528
1709914267.3248 0.873 0.025 0.0528 0.874 0.0528
1709914267.3332 0.876 0.025 0.0543 0.877 0.0543
1709914267.3411 0.879 0.025 0.0528 0.880 0.0528
1709914267.3484 0.882 0.026 0.0481 0.883 0.0481
1709914267.3570 0.886 0.026 0.0435 0.886 0.0435
1709914267.3650 0.889 0.026 0.0435 0.889 0.0435
1709914267.3731 0.891 0.026 0.0419 0.892 0.0419
1709914267.3805 0.895 0.026 0.0357 0.896 0.0357
1709914267.3885 0.898 0.026 0.0310 0.899 0.0310
1709914267.3968 0.901 0.026 0.0310 0.902 0.0310
1709914267.4042 0.905 0.027 0.0279 0.905 0.0279
1709914267.4130 0.908 0.027 0.0233 0.909 0.0233
1709914267.4210 0.911 0.027 0.0171 0.912 0.0171
1709914267.4283 0.914 0.027 0.0124 0.915 0.0124
1709914267.4372 0.918 0.027 0.0109 0.918 0.0109
1709914267.4443 0.921 0.027 0.0047 0.921 0.0047
1709914267.4523 0.924 0.027 -0.0016 0.924 -0.0016
1709914267.4611 0.927 0.027 -0.0078 0.927 -0.0078
1709914267.4683 0.930 0.027 -0.0109 0.931 -0.0109
1709914267.4762 0.934 0.027 -0.0155 0.934 -0.0155
1709914267.4851 0.936 0.027 -0.0202 0.937 -0.0202
1709914267.4925 0.939 0.027 -0.0295 0.940 -0.0295
1709914267.5009 0.943 0.026 -0.0341 0.943 -0.0341
1709914267.5086 0.946 0.026 -0.0357 0.947 -0.0357
1709914267.5169 0.949 0.026 -0.0435 0.950 -0.0435
1709914267.5251 0.952 0.026 -0.0512 0.953 -0.0512
1709914267.5331 0.955 0.026 -0.0605 0.956 -0.0605
1709914267.5404 0.959 0.026 -0.0667 0.959 -0.0667
1709914267.5487 0.962 0.025 -0.0714 0.963 -0.0714
1709914267.5566 0.965 0.025 -0.0792 0.966 -0.0792
1709914267.5650 0.969 0.025 -0.0869 0.969 -0.0869
1709914267.5730 0.971 0.025 -0.0978 0.972 -0.0978
1709914267.5809 0.975 0.024 -0.1056 0.975 -0.1056
1709914267.5884 0.978 0.024 -0.1102 0.979 -0.1102
1709914267.5968 0.981 0.024 -0.1180 0.982 -0.1180
1709914267.6048 0.984 0.023 -0.1242 0.985 -0.1242
1709914267.6123 0.987 0.023 -0.1335 0.988 -0.1335
1709914267.6214 0.990 0.022 -0.1413 0.991 -0.1413
1709914267.6283 0.994 0.022 -0.1490 0.995 -0.1490
1709914267.6376 0.997 0.021 -0.1537 0.998 -0.1537
1709914267.6449 1.000 0.021 -0.1614 1.001 -0.1614
1709914267.6529 1.003 0.020 -0.1723 1.004 -0.1723
1709914267.6603 1.006 0.020 -0.1816 1.007 -0.1816
1709914267.6688 1.009 0.019 -0.1847 1.010 -0.1847
1709914267.6764 1.012 0.019 -0.1894 1.014 -0.1894
1709914267.6846 1.016 0.018 -0.1987 1.017 -0.1987
1709914267.6930 1.019 0.017 -0.2096 1.020 -0.2096
1709914267.7010 1.021 0.017 -0.2173 1.023 -0.2173
1709914267.7084 1.024 0.016 -0.2235 1.026 -0.2235
1709914267.7167 1.028 0.015 -0.2282 1.030 -0.2282
1709914267.7243 1.031 0.015 -0.2375 1.033 -0.2375
1709914267.7324 1.034 0.014 -0.2468 1.036 -0.2468
1709914267.7408 1.037 0.013 -0.2530 1.039 -0.2530
1709914267.7488 1.040 0.012 -0.2608 1.042 -0.2608
1709914267.7561 1.043 0.011 -0.2670 1.046 -0.2670
1709914267.7645 1.046 0.011 -0.2716 1.048 -0.2716
1709914267.7731 1.049 0.010 -0.2810 1.051 -0.2810
1709914267.7804 1.052 0.009 -0.2887 1.055 -0.2887
1709914267.7888 1.056 0.008 -0.2949 1.058 -0.2949
1709914267.7970 1.059 0.007 -0.3011 1.061 -0.3011
1709914267.8044 1.062 0.006 -0.3073 1.064 -0.3073
1709914267.8128 1.064 0.005 -0.3136 1.067 -0.3136
1709914267.8214 1.068 0.004 -0.3198 1.071 -0.3198
1709914267.8286 1.071 0.003 -0.3275 1.074 -0.3275
1709914267.8371 1.074 0.002 -0.3353 1.078 -0.3353
1709914267.8450 1.077 0.001 -0.3415 1.080 -0.3415
1709914267.8523 1.080 -0.000 -0.3493 1.084 -0.3493
1709914267.8608 1.083 -0.001 -0.3555 1.087 -0.3555
1709914267.8686 1.086 -0.002 -0.3617 1.090 -0.3617
1709914267.8769 1.089 -0.004 -0.3694 1.093 -0.3694
1709914267.8845 1.092 -0.005 -0.3756 1.097 -0.3756
1709914267.8924 1.095 -0.006 -0.3819 1.100 -0.3819
1709914267.9007 1.098 -0.007 -0.3881 1.103 -0.3881
1709914267.9089 1.100 -0.008 -0.3974 1.106 -0.3974
1709914267.9168 1.104 -0.010 -0.4020 1.110 -0.4020
1709914267.9247 1.107 -0.011 -0.4082 1.113 -0.4082
1709914267.9330 1.110 -0.012 -0.4113 1.116 -0.4113
1709914267.9410 1.112 -0.013 -0.4207 1.119 -0.4207
1709914267.9482 1.115 -0.015 -0.4315 1.122 -0.4315
1709914267.9562 1.118 -0.016 -0.4362 1.125 -0.4362
1709914267.9642 1.121 -0.017 -0.4393 1.128 -0.4393
1709914267.9721 1.124 -0.019 -0.4470 1.132 -0.4470
1709914267.9805 1.127 -0.020 -0.4579 1.135 -0.4579
1709914267.9884 1.129 -0.021 -0.4672 1.138 -0.4672
1709914267.9975 1.133 -0.023 -0.4703 1.141 -0.4703
1709914268.0048 1.135 -0.024 -0.4750 1.144 -0.4750
1709914268.0126 1.139 -0.026 -0.4828 1.148 -0.4828
1709914268.0215 1.141 -0.027 -0.4921 1.151 -0.4921
1709914268.0287 1.143 -0.029 -0.4998 1.153 -0.4998
1709914268.0366 1.146 -0.030 -0.5076 1.157 -0.5076
1709914268.0446 1.149 -0.032 -0.5122 1.160 -0.5122
1709914268.0529 1.152 -0.034 -0.5169 1.163 -0.5169
1709914268.0610 1.155 -0.035 -0.5262 1.166 -0.5262
1709914268.0682 1.157 -0.037 -0.5355 1.170 -0.5355
1709914268.0762 1.160 -0.038 -0.5417 1.173 -0.5417
1709914268.0841 1.163 -0.040 -0.5464 1.176 -0.5464
1709914268.0924 1.166 -0.042 -0.5526 1.179 -0.5526
1709914268.1007 1.168 -0.043 -0.5650 1.183 -0.5650
1709914268.1086 1.171 -0.045 -0.5774 1.186 -0.5774
1709914268.1168 1.174 -0.047 -0.5790 1.189 -0.5790
1709914268.1247 1.176 -0.049 -0.5821 1.192 -0.5821
1709914268.1325 1.179 -0.051 -0.5899 1.196 -0.5899
1709914268.1409 1.182 -0.052 -0.6007 1.199 -0.6007
1709914268.1482 1.184 -0.054 -0.6100 1.202 -0.6100
1709914268.1561 1.187 -0.056 -0.6147 1.205 -0.6147
1709914268.1647 1.190 -0.058 -0.6209 1.209 -0.6209
1709914268.1726 1.193 -0.060 -0.6271 1.212 -0.6271
1709914268.1805 1.195 -0.062 -0.6364 1.215 -0.6364
1709914268.1888 1.197 -0.063 -0.6442 1.218 -0.6442
