% Encoder logfile
% 1 	Time (sec)
% 2,3 	enc left, right
% 4,5 	encoder change left, right
1709914264.9655 0 0 0 0
1709914264.9745 0 0 0 0
1709914264.9801 0 0 0 0
1709914264.9885 0 0 0 0
1709914264.9970 0 0 0 0
1709914265.0042 0 0 0 0
1709914265.0121 0 0 0 0
1709914265.0211 0 0 0 0
1709914265.0282 0 0 0 0
1709914265.0363 0 0 0 0
1709914265.0450 0 0 0 0
1709914265.0531 0 0 0 0
1709914265.0600 0 0 0 0
1709914265.0687 0 0 0 0
1709914265.0764 0 0 0 0
1709914265.0844 0 0 0 0
1709914265.0925 1 0 1 0
1709914265.1008 5 5 4 5
1709914265.1089 11 12 6 7
1709914265.1172 16 17 5 5
1709914265.1244 18 19 2 2
1709914265.1324 21 22 3 3
1709914265.1408 26 27 5 5
1709914265.1480 31 31 5 4
1709914265.1561 36 37 5 6
1709914265.1645 42 43 6 6
1709914265.1730 48 50 6 7
1709914265.1810 55 56 7 6
1709914265.1884 62 64 7 8
1709914265.1970 70 73 8 9
1709914265.2051 78 81 8 8
1709914265.2123 86 90 8 9
1709914265.2214 95 98 9 8
1709914265.2285 104 106 9 8
1709914265.2370 114 115 10 9
1709914265.2446 122 124 8 9
1709914265.2525 130 133 8 9
1709914265.2609 139 142 9 9
1709914265.2683 149 149 10 7
1709914265.2761 159 158 10 9
1709914265.2845 168 168 9 10
1709914265.2929 175 177 7 9
1709914265.3007 183 185 8 8
1709914265.3083 194 194 11 9
1709914265.3167 203 204 9 10
1709914265.3244 211 213 8 9
1709914265.3328 219 220 8 7
1709914265.3403 227 228 8 8
1709914265.3482 236 238 9 10
1709914265.3566 244 248 8 10
1709914265.3651 252 256 8 8
1709914265.3729 261 263 9 7
1709914265.3802 271 273 10 10
1709914265.3887 280 283 9 10
1709914265.3967 287 292 7 9
1709914265.4041 295 299 8 7
1709914265.4126 304 307 9 8
1709914265.4214 313 316 9 9
1709914265.4306 321 325 8 9
1709914265.4369 330 333 9 8
1709914265.4449 339 341 9 8
1709914265.4530 346 348 7 7
1709914265.4604 354 356 8 8
1709914265.4685 363 366 9 10
1709914265.4772 372 374 9 8
1709914265.4844 380 382 8 8
1709914265.4923 388 390 8 8
1709914265.5006 396 397 8 7
1709914265.5080 405 405 9 8
1709914265.5170 414 414 9 9
1709914265.5248 421 422 7 8
1709914265.5321 430 428 9 6
1709914265.5410 438 434 8 6
1709914265.5482 445 442 7 8
1709914265.5565 454 450 9 8
1709914265.5644 463 458 9 8
1709914265.5722 471 467 8 9
1709914265.5807 480 477 9 10
1709914265.5887 490 485 10 8
1709914265.5963 501 494 11 9
1709914265.6046 510 502 9 8
1709914265.6124 518 511 8 9
1709914265.6214 528 519 10 8
1709914265.6287 539 528 11 9
1709914265.6367 550 537 11 9
1709914265.6450 559 546 9 9
1709914265.6522 568 554 9 8
1709914265.6609 577 562 9 8
1709914265.6682 586 571 9 9
1709914265.6762 594 579 8 8
1709914265.6841 602 587 8 8
1709914265.6924 611 595 9 8
1709914265.7007 620 603 9 8
1709914265.7084 628 611 8 8
1709914265.7168 635 619 7 8
1709914265.7247 643 628 8 9
1709914265.7327 652 637 9 9
1709914265.7410 661 645 9 8
1709914265.7483 669 653 8 8
1709914265.7562 676 661 7 8
1709914265.7646 684 669 8 8
1709914265.7728 692 678 8 9
1709914265.7809 702 687 10 9
1709914265.7883 710 694 8 7
1709914265.7966 717 704 7 10
1709914265.8046 724 712 7 8
1709914265.8130 732 720 8 8
1709914265.8212 742 729 10 9
1709914265.8282 751 739 9 10
1709914265.8377 758 748 7 9
1709914265.8442 765 755 7 7
1709914265.8522 774 764 9 9
1709914265.8607 783 774 9 10
1709914265.8690 791 783 8 9
1709914265.8768 799 792 8 9
1709914265.8841 807 801 8 9
1709914265.8926 816 811 9 10
1709914265.9008 825 821 9 10
1709914265.9081 833 830 8 9
1709914265.9168 840 839 7 9
1709914265.9247 847 849 7 10
1709914265.9329 855 857 8 8
1709914265.9400 863 865 8 8
1709914265.9490 871 873 8 8
1709914265.9562 878 882 7 9
1709914265.9645 886 892 8 10
1709914265.9731 894 899 8 7
1709914265.9804 902 906 8 7
1709914265.9888 910 914 8 8
1709914265.9968 917 923 7 9
1709914266.0041 925 931 8 8
1709914266.0125 933 939 8 8
1709914266.0209 940 947 7 8
1709914266.0281 948 957 8 10
1709914266.0364 957 966 9 9
1709914266.0443 964 975 7 9
1709914266.0526 971 983 7 8
1709914266.0610 980 993 9 10
1709914266.0687 990 1003 10 10
1709914266.0766 998 1012 8 9
1709914266.0840 1004 1019 6 7
1709914266.0922 1012 1027 8 8
1709914266.1006 1022 1037 10 10
1709914266.1086 1031 1048 9 11
1709914266.1166 1039 1057 8 9
1709914266.1246 1046 1065 7 8
1709914266.1331 1054 1073 8 8
1709914266.1410 1064 1083 10 10
1709914266.1482 1074 1093 10 10
1709914266.1564 1082 1101 8 8
1709914266.1643 1089 1109 7 8
1709914266.1724 1097 1118 8 9
1709914266.1807 1106 1127 9 9
1709914266.1887 1115 1135 9 8
1709914266.1968 1123 1143 8 8
1709914266.2041 1131 1153 8 10
1709914266.2121 1139 1162 8 9
1709914266.2211 1147 1170 8 8
1709914266.2285 1155 1178 8 8
1709914266.2364 1165 1188 10 10
1709914266.2445 1173 1197 8 9
1709914266.2531 1180 1205 7 8
1709914266.2610 1188 1212 8 7
1709914266.2683 1198 1221 10 9
1709914266.2761 1205 1231 7 10
1709914266.2841 1212 1239 7 8
1709914266.2922 1220 1246 8 7
1709914266.3007 1230 1254 10 8
1709914266.3085 1239 1264 9 10
1709914266.3168 1246 1273 7 9
1709914266.3246 1253 1280 7 7
1709914266.3325 1262 1288 9 8
1709914266.3407 1271 1297 9 9
1709914266.3491 1279 1307 8 10
1709914266.3570 1287 1315 8 8
1709914266.3644 1296 1323 9 8
1709914266.3723 1305 1332 9 9
1709914266.3810 1312 1340 7 8
1709914266.3883 1319 1348 7 8
1709914266.3966 1328 1357 9 9
1709914266.4046 1338 1365 10 8
1709914266.4129 1346 1373 8 8
1709914266.4208 1353 1383 7 10
1709914266.4286 1361 1393 8 10
1709914266.4369 1371 1400 10 7
1709914266.4441 1380 1407 9 7
1709914266.4528 1388 1416 8 9
1709914266.4649 1395 1426 7 10
1709914266.4688 1403 1435 8 9
1709914266.4766 1413 1444 10 9
1709914266.4841 1420 1449 7 5
1709914266.4924 1426 1456 6 7
1709914266.5003 1434 1466 8 10
1709914266.5086 1444 1477 10 11
1709914266.5167 1453 1486 9 9
1709914266.5246 1461 1493 8 7
1709914266.5324 1467 1500 6 7
1709914266.5408 1475 1508 8 8
1709914266.5488 1484 1519 9 11
1709914266.5570 1493 1528 9 9
1709914266.5643 1501 1535 8 7
1709914266.5729 1508 1542 7 7
1709914266.5805 1515 1551 7 9
1709914266.5891 1524 1562 9 11
1709914266.5960 1534 1570 10 8
1709914266.6044 1542 1577 8 7
1709914266.6127 1549 1584 7 7
1709914266.6217 1557 1593 8 9
1709914266.6290 1566 1604 9 11
1709914266.6365 1576 1613 10 9
1709914266.6447 1583 1620 7 7
1709914266.6530 1590 1626 7 6
1709914266.6604 1598 1635 8 9
1709914266.6685 1607 1645 9 10
1709914266.6766 1616 1654 9 9
1709914266.6851 1624 1663 8 9
1709914266.6921 1632 1670 8 7
1709914266.7005 1640 1678 8 8
1709914266.7091 1648 1688 8 10
1709914266.7170 1657 1697 9 9
1709914266.7250 1666 1705 9 8
1709914266.7324 1675 1712 9 7
1709914266.7411 1683 1720 8 8
1709914266.7483 1690 1730 7 10
1709914266.7567 1699 1739 9 9
1709914266.7647 1708 1746 9 7
1709914266.7727 1716 1754 8 8
1709914266.7810 1723 1763 7 9
1709914266.7887 1732 1773 9 10
1709914266.7969 1741 1781 9 8
1709914266.8043 1749 1789 8 8
1709914266.8131 1757 1797 8 8
1709914266.8211 1765 1805 8 8
1709914266.8281 1775 1814 10 9
1709914266.8371 1783 1823 8 9
1709914266.8443 1790 1831 7 8
1709914266.8527 1799 1839 9 8
1709914266.8607 1808 1846 9 7
1709914266.8689 1818 1855 10 9
1709914266.8768 1826 1865 8 10
1709914266.8846 1834 1873 8 8
1709914266.8930 1843 1881 9 8
1709914266.9004 1852 1889 9 8
1709914266.9086 1860 1898 8 9
1709914266.9168 1868 1906 8 8
1709914266.9249 1876 1914 8 8
1709914266.9330 1886 1922 10 8
1709914266.9404 1896 1932 10 10
1709914266.9490 1904 1941 8 9
1709914266.9569 1910 1948 6 7
1709914266.9651 1918 1957 8 9
1709914266.9722 1928 1966 10 9
1709914266.9802 1938 1974 10 8
1709914266.9886 1945 1981 7 7
1709914266.9970 1951 1990 6 9
1709914267.0042 1960 2000 9 10
1709914267.0125 1970 2009 10 9
1709914267.0218 1978 2016 8 7
1709914267.0291 1986 2024 8 8
1709914267.0364 1995 2035 9 11
1709914267.0449 2004 2043 9 8
1709914267.0529 2011 2049 7 6
1709914267.0601 2019 2057 8 8
1709914267.0687 2028 2067 9 10
1709914267.0766 2036 2076 8 9
1709914267.0851 2044 2084 8 8
1709914267.0925 2053 2091 9 7
1709914267.1005 2063 2099 10 8
1709914267.1088 2071 2109 8 10
1709914267.1163 2079 2118 8 9
1709914267.1251 2087 2126 8 8
1709914267.1324 2096 2133 9 7
1709914267.1409 2104 2142 8 9
1709914267.1489 2112 2151 8 9
1709914267.1563 2122 2159 10 8
1709914267.1649 2131 2166 9 7
1709914267.1725 2139 2174 8 8
1709914267.1809 2147 2184 8 10
1709914267.1881 2155 2193 8 9
1709914267.1961 2164 2201 9 8
1709914267.2049 2172 2207 8 6
1709914267.2124 2180 2216 8 9
1709914267.2212 2189 2226 9 10
1709914267.2284 2198 2234 9 8
1709914267.2369 2206 2242 8 8
1709914267.2448 2214 2249 8 7
1709914267.2523 2222 2258 8 9
1709914267.2607 2231 2268 9 10
1709914267.2686 2240 2276 9 8
1709914267.2777 2248 2283 8 7
1709914267.2842 2256 2291 8 8
1709914267.2922 2265 2300 9 9
1709914267.3005 2272 2308 7 8
1709914267.3089 2280 2315 8 7
1709914267.3169 2290 2323 10 8
1709914267.3248 2300 2333 10 10
1709914267.3332 2308 2342 8 9
1709914267.3411 2316 2349 8 7
1709914267.3484 2326 2356 10 7
1709914267.3570 2337 2364 11 8
1709914267.3650 2345 2372 8 8
1709914267.3731 2353 2379 8 7
1709914267.3805 2364 2386 11 7
1709914267.3885 2374 2393 10 7
1709914267.3968 2382 2401 8 8
1709914267.4042 2392 2409 10 8
1709914267.4130 2403 2417 11 8
1709914267.4210 2413 2423 10 6
1709914267.4283 2423 2430 10 7
1709914267.4372 2432 2438 9 8
1709914267.4443 2442 2444 10 6
1709914267.4523 2452 2450 10 6
1709914267.4611 2462 2456 10 6
1709914267.4683 2472 2464 10 8
1709914267.4762 2483 2472 11 8
1709914267.4851 2492 2478 9 6
1709914267.4925 2503 2483 11 5
1709914267.5009 2513 2490 10 7
1709914267.5086 2522 2498 9 8
1709914267.5169 2533 2504 11 6
1709914267.5251 2544 2510 11 6
1709914267.5331 2555 2515 11 5
1709914267.5404 2566 2522 11 7
1709914267.5487 2577 2530 11 8
1709914267.5566 2588 2536 11 6
1709914267.5650 2599 2542 11 6
1709914267.5730 2610 2546 11 4
1709914267.5809 2621 2552 11 6
1709914267.5884 2632 2560 11 8
1709914267.5968 2643 2566 11 6
1709914267.6048 2653 2572 10 6
1709914267.6123 2664 2577 11 5
1709914267.6214 2675 2583 11 6
1709914267.6283 2686 2589 11 6
1709914267.6376 2696 2596 10 7
1709914267.6449 2707 2602 11 6
1709914267.6529 2719 2607 12 5
1709914267.6603 2730 2612 11 5
1709914267.6688 2739 2619 9 7
1709914267.6764 2749 2626 10 7
1709914267.6846 2761 2632 12 6
1709914267.6930 2773 2637 12 5
1709914267.7010 2783 2642 10 5
1709914267.7084 2793 2648 10 6
1709914267.7167 2804 2656 11 8
1709914267.7243 2816 2662 12 6
1709914267.7324 2826 2666 10 4
1709914267.7408 2836 2672 10 6
1709914267.7488 2848 2679 12 7
1709914267.7561 2859 2686 11 7
1709914267.7645 2868 2692 9 6
1709914267.7731 2878 2696 10 4
1709914267.7804 2890 2703 12 7
1709914267.7888 2902 2711 12 8
1709914267.7970 2912 2717 10 6
1709914267.8044 2922 2723 10 6
1709914267.8128 2932 2729 10 6
1709914267.8214 2943 2736 11 7
1709914267.8286 2955 2743 12 7
1709914267.8371 2966 2749 11 6
1709914267.8450 2975 2754 9 5
1709914267.8523 2987 2761 12 7
1709914267.8608 2998 2768 11 7
1709914267.8686 3008 2774 10 6
1709914267.8769 3019 2780 11 6
1709914267.8845 3030 2787 11 7
1709914267.8924 3040 2793 10 6
1709914267.9007 3050 2799 10 6
1709914267.9089 3061 2804 11 5
1709914267.9168 3072 2812 11 8
1709914267.9247 3083 2819 11 7
1709914267.9330 3092 2826 9 7
1709914267.9410 3103 2831 11 5
1709914267.9482 3115 2836 12 5
1709914267.9562 3125 2843 10 7
1709914267.9642 3134 2850 9 7
1709914267.9721 3145 2856 11 6
1709914267.9805 3157 2861 12 5
1709914267.9884 3168 2866 11 5
1709914267.9975 3178 2874 10 8
1709914268.0048 3188 2881 10 7
1709914268.0126 3200 2888 12 7
1709914268.0215 3211 2893 11 5
1709914268.0287 3220 2897 9 4
1709914268.0366 3231 2903 11 6
1709914268.0446 3242 2911 11 8
1709914268.0529 3252 2918 10 7
1709914268.0610 3263 2923 11 5
1709914268.0682 3274 2928 11 5
1709914268.0762 3285 2935 11 7
1709914268.0841 3295 2942 10 7
1709914268.0924 3305 2948 10 6
1709914268.1007 3318 2953 13 5
1709914268.1086 3331 2958 13 5
1709914268.1168 3340 2966 9 8
1709914268.1247 3349 2973 9 7
1709914268.1325 3361 2980 12 7
1709914268.1409 3373 2985 12 5
1709914268.1482 3383 2989 10 4
1709914268.1561 3393 2996 10 7
1709914268.1647 3405 3004 12 8
1709914268.1726 3416 3011 11 7
1709914268.1805 3427 3016 11 5
1709914268.1888 3437 3021 10 5
1709914268.1961 3448 3026 11 5
1709914268.2042 3459 3033 11 7
1709914268.2130 3469 3041 10 8
1709914268.2216 3480 3047 11 6
1709914268.2288 3493 3052 13 5
1709914268.2362 3505 3058 12 6
1709914268.2447 3514 3065 9 7
1709914268.2527 3523 3071 9 6
1709914268.2602 3533 3076 10 5
1709914268.2685 3545 3082 12 6
1709914268.2769 3556 3089 11 7
1709914268.2842 3566 3096 10 7
1709914268.2925 3576 3103 10 7
1709914268.3005 3587 3108 11 5
1709914268.3088 3597 3114 10 6
1709914268.3171 3608 3121 11 7
1709914268.3243 3619 3129 11 8
1709914268.3326 3629 3136 10 7
1709914268.3410 3638 3141 9 5
1709914268.3488 3648 3146 10 5
1709914268.3569 3660 3153 12 7
1709914268.3641 3671 3161 11 8
1709914268.3727 3680 3168 9 7
1709914268.3804 3689 3173 9 5
1709914268.3888 3700 3179 11 6
1709914268.3967 3712 3186 12 7
1709914268.4048 3723 3194 11 8
1709914268.4131 3733 3200 10 6
1709914268.4217 3742 3206 9 6
1709914268.4289 3753 3212 11 6
1709914268.4372 3764 3220 11 8
1709914268.4450 3774 3226 10 6
1709914268.4526 3783 3232 9 6
1709914268.4609 3793 3239 10 7
1709914268.4688 3804 3246 11 7
1709914268.4766 3814 3252 10 6
1709914268.4849 3823 3258 9 6
1709914268.4925 3833 3265 10 7
1709914268.5009 3845 3273 12 8
1709914268.5081 3855 3279 10 6
1709914268.5170 3865 3285 10 6
1709914268.5248 3875 3292 10 7
1709914268.5331 3886 3300 11 8
1709914268.5411 3897 3308 11 8
1709914268.5484 3907 3313 10 5
1709914268.5567 3916 3318 9 5
1709914268.5646 3926 3325 10 7
1709914268.5725 3937 3333 11 8
1709914268.5808 3947 3342 10 9
1709914268.5882 3958 3348 11 6
1709914268.5966 3968 3353 10 5
1709914268.6050 3977 3359 9 6
1709914268.6129 3987 3367 10 8
1709914268.6218 3998 3375 11 8
1709914268.6288 4008 3381 10 6
1709914268.6367 4019 3387 11 6
1709914268.6450 4028 3392 9 5
1709914268.6523 4038 3399 10 7
1709914268.6602 4049 3407 11 8
1709914268.6684 4059 3414 10 7
1709914268.6763 4068 3420 9 6
1709914268.6841 4079 3426 11 6
1709914268.6925 4090 3434 11 8
1709914268.7008 4099 3442 9 8
1709914268.7087 4109 3448 10 6
1709914268.7168 4120 3455 11 7
1709914268.7246 4130 3463 10 8
1709914268.7326 4139 3471 9 8
1709914268.7409 4147 3478 8 7
1709914268.7481 4156 3484 9 6
1709914268.7570 4166 3493 10 9
1709914268.7650 4176 3501 10 8
1709914268.7730 4185 3509 9 8
1709914268.7808 4193 3517 8 8
1709914268.7890 4202 3525 9 8
1709914268.7962 4213 3533 11 8
1709914268.8051 4222 3540 9 7
1709914268.8131 4230 3547 8 7
1709914268.8209 4240 3555 10 8
1709914268.8287 4250 3564 10 9
1709914268.8369 4260 3572 10 8
1709914268.8442 4269 3578 9 6
1709914268.8528 4277 3585 8 7
1709914268.8611 4286 3593 9 8
1709914268.8684 4298 3601 12 8
1709914268.8768 4309 3609 11 8
1709914268.8850 4318 3614 9 5
1709914268.8921 4326 3620 8 6
1709914268.9007 4336 3628 10 8
1709914268.9090 4346 3636 10 8
1709914268.9161 4356 3642 10 6
1709914268.9246 4365 3648 9 6
1709914268.9329 4375 3654 10 6
1709914268.9403 4386 3662 11 8
1709914268.9489 4397 3669 11 7
1709914268.9568 4406 3675 9 6
1709914268.9650 4416 3679 10 4
1709914268.9724 4427 3685 11 6
1709914268.9807 4437 3693 10 8
1709914268.9888 4448 3700 11 7
1709914268.9965 4459 3706 11 6
1709914269.0048 4470 3711 11 5
1709914269.0131 4480 3716 10 5
1709914269.0216 4492 3724 12 8
1709914269.0289 4503 3732 11 8
1709914269.0371 4513 3739 10 7
1709914269.0451 4523 3743 10 4
1709914269.0522 4534 3748 11 5
1709914269.0605 4546 3755 12 7
1709914269.0684 4557 3762 11 7
1709914269.0772 4567 3769 10 7
1709914269.0844 4577 3775 10 6
1709914269.0922 4588 3782 11 7
1709914269.1004 4598 3788 10 6
1709914269.1087 4608 3794 10 6
1709914269.1166 4619 3800 11 6
1709914269.1243 4631 3807 12 7
1709914269.1326 4641 3814 10 7
1709914269.1404 4650 3819 9 5
1709914269.1487 4661 3825 11 6
1709914269.1570 4672 3833 11 8
1709914269.1648 4682 3841 10 8
1709914269.1724 4691 3847 9 6
1709914269.1806 4702 3852 11 5
1709914269.1885 4713 3858 11 6
1709914269.1967 4723 3866 10 8
1709914269.2051 4732 3875 9 9
1709914269.2126 4743 3880 11 5
1709914269.2215 4756 3885 13 5
1709914269.2288 4766 3892 10 7
1709914269.2366 4775 3900 9 8
1709914269.2449 4784 3907 9 7
1709914269.2531 4794 3912 10 5
1709914269.2608 4806 3919 12 7
1709914269.2690 4817 3928 11 9
1709914269.2770 4827 3935 10 7
1709914269.2849 4835 3941 8 6
1709914269.2925 4845 3947 10 6
1709914269.3003 4856 3955 11 8
1709914269.3092 4867 3963 11 8
1709914269.3163 4876 3970 9 7
1709914269.3242 4885 3976 9 6
1709914269.3330 4894 3981 9 5
1709914269.3403 4905 3989 11 8
1709914269.3486 4916 3998 11 9
1709914269.3564 4925 4005 9 7
1709914269.3646 4934 4011 9 6
1709914269.3727 4944 4019 10 8
1709914269.3805 4954 4027 10 8
1709914269.3887 4965 4033 11 6
1709914269.3968 4974 4039 9 6
1709914269.4045 4983 4047 9 8
1709914269.4129 4993 4054 10 7
1709914269.4217 5004 4061 11 7
1709914269.4285 5014 4068 10 7
1709914269.4375 5023 4076 9 8
1709914269.4448 5031 4083 8 7
1709914269.4523 5041 4091 10 8
1709914269.4606 5051 4097 10 6
1709914269.4690 5060 4103 9 6
1709914269.4765 5069 4110 9 7
1709914269.4845 5079 4118 10 8
1709914269.4928 5089 4126 10 8
1709914269.5006 5098 4132 9 6
1709914269.5089 5107 4138 9 6
1709914269.5171 5117 4146 10 8
1709914269.5246 5128 4156 11 10
1709914269.5326 5137 4163 9 7
1709914269.5409 5145 4168 8 5
1709914269.5487 5155 4175 10 7
1709914269.5570 5166 4184 11 9
1709914269.5642 5177 4192 11 8
1709914269.5725 5186 4198 9 6
1709914269.5807 5194 4203 8 5
1709914269.5887 5204 4211 10 8
1709914269.5966 5215 4221 11 10
1709914269.6049 5226 4229 11 8
1709914269.6121 5235 4235 9 6
1709914269.6215 5243 4240 8 5
1709914269.6287 5252 4248 9 8
1709914269.6370 5263 4256 11 8
1709914269.6448 5273 4264 10 8
1709914269.6530 5281 4270 8 6
1709914269.6603 5290 4276 9 6
1709914269.6689 5301 4284 11 8
1709914269.6767 5310 4293 9 9
1709914269.6849 5318 4301 8 8
1709914269.6927 5329 4308 11 7
1709914269.7010 5339 4314 10 6
1709914269.7091 5347 4320 8 6
1709914269.7169 5356 4329 9 9
1709914269.7248 5368 4338 12 9
1709914269.7321 5378 4345 10 7
1709914269.7410 5387 4351 9 6
1709914269.7481 5396 4357 9 6
1709914269.7562 5406 4365 10 8
1709914269.7651 5415 4374 9 9
1709914269.7729 5424 4382 9 8
1709914269.7811 5435 4388 11 6
1709914269.7889 5444 4394 9 6
1709914269.7969 5453 4402 9 8
1709914269.8041 5463 4411 10 9
1709914269.8130 5472 4419 9 8
1709914269.8208 5481 4426 9 7
1709914269.8290 5491 4433 10 7
1709914269.8368 5501 4441 10 8
1709914269.8448 5510 4449 9 8
1709914269.8530 5517 4456 7 7
1709914269.8609 5526 4464 9 8
1709914269.8692 5537 4472 11 8
1709914269.8770 5548 4481 11 9
1709914269.8848 5556 4488 8 7
1709914269.8929 5564 4495 8 7
1709914269.9001 5572 4504 8 9
1709914269.9090 5583 4512 11 8
1709914269.9173 5592 4518 9 6
1709914269.9242 5600 4527 8 9
1709914269.9329 5608 4536 8 9
1709914269.9412 5616 4544 8 8
1709914269.9484 5625 4552 9 8
1709914269.9569 5634 4562 9 10
1709914269.9651 5642 4570 8 8
1709914269.9731 5649 4578 7 8
1709914269.9807 5658 4588 9 10
1709914269.9890 5666 4597 8 9
1709914269.9962 5674 4605 8 8
1709914270.0051 5682 4613 8 8
1709914270.0133 5689 4623 7 10
1709914270.0212 5698 4633 9 10
1709914270.0288 5707 4642 9 9
1709914270.0371 5715 4650 8 8
1709914270.0443 5721 4658 6 8
1709914270.0521 5728 4668 7 10
1709914270.0614 5736 4678 8 10
1709914270.0684 5745 4686 9 8
1709914270.0769 5753 4695 8 9
1709914270.0851 5760 4704 7 9
1709914270.0924 5767 4714 7 10
1709914270.1007 5775 4725 8 11
1709914270.1090 5783 4732 8 7
1709914270.1170 5790 4740 7 8
1709914270.1243 5798 4750 8 10
1709914270.1326 5806 4761 8 11
1709914270.1409 5814 4770 8 9
1709914270.1488 5821 4778 7 8
1709914270.1579 5829 4787 8 9
1709914270.1651 5837 4798 8 11
1709914270.1725 5847 4808 10 10
1709914270.1807 5855 4816 8 8
1709914270.1890 5861 4824 6 8
1709914270.1967 5868 4832 7 8
1709914270.2047 5877 4843 9 11
1709914270.2130 5886 4853 9 10
1709914270.2215 5893 4861 7 8
1709914270.2286 5900 4869 7 8
1709914270.2369 5908 4880 8 11
1709914270.2447 5916 4889 8 9
1709914270.2529 5923 4897 7 8
1709914270.2601 5930 4906 7 9
1709914270.2690 5938 4915 8 9
1709914270.2768 5947 4924 9 9
