% Pose without folding and reset (log_20240224_120300.930/log_pose_abs.txt)
% 1 	Time (sec)
% 2,3 	Position x,y (m)
% 4 	heading (rad)
% 5 	Driven distance (m) - signed
% 6 	Turned angle (rad) - signed
1708772581.7830 0.000 0.000 0.0000 0.000 0.0000
1708772581.7910 0.000 0.000 0.0000 0.000 0.0000
1708772581.7986 0.000 0.000 0.0000 0.000 0.0000
1708772581.8062 0.000 0.000 0.0000 0.000 0.0000
1708772581.8142 0.000 0.000 0.0000 0.000 0.0000
1708772581.8223 0.000 0.000 0.0000 0.000 0.0000
1708772581.8302 0.000 0.000 0.0000 0.000 0.0000
1708772581.8382 0.000 0.000 0.0000 0.000 0.0000
1708772581.8457 0.000 0.000 0.0000 0.000 0.0000
1708772581.8535 0.000 0.000 0.0000 0.000 0.0000
1708772581.8619 0.000 0.000 0.0000 0.000 0.0000
1708772581.8696 0.000 0.000 0.0000 0.000 0.0000
1708772581.8787 0.000 0.000 0.0000 0.000 0.0000
1708772581.8866 0.000 0.000 0.0000 0.000 0.0000
1708772581.8948 0.000 0.000 0.0000 0.000 0.0000
1708772581.9023 0.000 0.000 0.0000 0.000 0.0000
1708772581.9146 0.000 0.000 0.0000 0.000 0.0000
1708772581.9184 0.001 0.000 0.0062 0.001 0.0062
1708772581.9264 0.003 0.000 0.0078 0.003 0.0078
1708772581.9340 0.005 0.000 0.0078 0.005 0.0078
1708772581.9425 0.006 0.000 0.0078 0.006 0.0078
1708772581.9500 0.007 0.000 0.0078 0.007 0.0078
1708772581.9577 0.009 0.000 0.0093 0.009 0.0093
1708772581.9674 0.011 0.000 0.0109 0.011 0.0109
1708772581.9735 0.013 0.000 0.0124 0.013 0.0124
1708772581.9820 0.015 0.000 0.0109 0.015 0.0109
1708772581.9900 0.017 0.000 0.0140 0.017 0.0140
1708772581.9993 0.020 0.000 0.0171 0.020 0.0171
1708772582.0110 0.023 0.000 0.0186 0.023 0.0186
1708772582.0163 0.026 0.000 0.0202 0.026 0.0202
1708772582.0234 0.030 0.000 0.0233 0.030 0.0233
1708772582.0296 0.033 0.000 0.0264 0.033 0.0264
1708772582.0380 0.035 0.001 0.0310 0.035 0.0310
1708772582.0465 0.037 0.001 0.0357 0.037 0.0357
1708772582.0538 0.041 0.001 0.0404 0.041 0.0404
1708772582.0622 0.045 0.001 0.0435 0.045 0.0435
1708772582.0700 0.048 0.001 0.0450 0.048 0.0450
1708772582.0786 0.051 0.001 0.0466 0.051 0.0466
1708772582.0984 0.054 0.001 0.0512 0.054 0.0512
1708772582.1016 0.058 0.002 0.0559 0.058 0.0559
1708772582.1034 0.062 0.002 0.0605 0.062 0.0605
1708772582.1096 0.066 0.002 0.0621 0.066 0.0621
1708772582.1184 0.067 0.002 0.0652 0.067 0.0652
1708772582.1256 0.068 0.002 0.0667 0.068 0.0667
1708772582.1342 0.070 0.002 0.0699 0.070 0.0699
1708772582.1416 0.073 0.003 0.0730 0.073 0.0730
1708772582.1498 0.077 0.003 0.0761 0.077 0.0761
1708772582.1578 0.079 0.003 0.0792 0.079 0.0792
1708772582.1658 0.082 0.003 0.0838 0.082 0.0838
1708772582.1740 0.084 0.003 0.0854 0.084 0.0854
1708772582.1824 0.087 0.004 0.0838 0.088 0.0838
1708772582.1898 0.091 0.004 0.0854 0.091 0.0854
1708772582.1982 0.094 0.004 0.0885 0.094 0.0885
1708772582.2064 0.096 0.004 0.0916 0.096 0.0916
1708772582.2142 0.099 0.005 0.0885 0.099 0.0885
1708772582.2225 0.102 0.005 0.0885 0.102 0.0885
1708772582.2297 0.105 0.005 0.0947 0.105 0.0947
1708772582.2385 0.108 0.006 0.0993 0.108 0.0993
1708772582.2463 0.111 0.006 0.0978 0.111 0.0978
1708772582.2544 0.114 0.006 0.0947 0.114 0.0947
1708772582.2622 0.117 0.006 0.0962 0.117 0.0962
1708772582.2705 0.120 0.007 0.1009 0.120 0.1009
1708772582.2784 0.122 0.007 0.1009 0.122 0.1009
1708772582.2858 0.125 0.007 0.1009 0.125 0.1009
1708772582.2946 0.128 0.008 0.1009 0.128 0.1009
1708772582.3018 0.132 0.008 0.1009 0.132 0.1009
1708772582.3096 0.135 0.008 0.1009 0.135 0.1009
1708772582.3178 0.137 0.008 0.1040 0.137 0.1040
1708772582.3262 0.140 0.009 0.1040 0.141 0.1040
1708772582.3340 0.143 0.009 0.1024 0.144 0.1024
1708772582.3418 0.146 0.009 0.1024 0.147 0.1024
1708772582.3502 0.149 0.010 0.1040 0.150 0.1040
1708772582.3582 0.152 0.010 0.1024 0.153 0.1024
1708772582.3664 0.156 0.010 0.1024 0.156 0.1024
1708772582.3736 0.159 0.011 0.1009 0.159 0.1009
1708772582.3824 0.162 0.011 0.0993 0.163 0.0993
1708772582.3902 0.165 0.011 0.0978 0.165 0.0978
1708772582.3985 0.168 0.012 0.0962 0.169 0.0962
1708772582.4062 0.172 0.012 0.0962 0.172 0.0962
1708772582.4144 0.175 0.012 0.0962 0.176 0.0962
1708772582.4216 0.178 0.013 0.0962 0.178 0.0962
1708772582.4303 0.181 0.013 0.0916 0.181 0.0916
1708772582.4375 0.184 0.013 0.0885 0.185 0.0885
1708772582.4465 0.188 0.013 0.0869 0.189 0.0869
1708772582.4542 0.191 0.014 0.0869 0.192 0.0869
1708772582.4624 0.194 0.014 0.0854 0.194 0.0854
1708772582.4696 0.197 0.014 0.0807 0.198 0.0807
1708772582.4782 0.201 0.015 0.0792 0.201 0.0792
1708772582.4865 0.204 0.015 0.0776 0.204 0.0776
1708772582.4944 0.207 0.015 0.0761 0.208 0.0761
1708772582.5022 0.210 0.015 0.0714 0.211 0.0714
1708772582.5106 0.213 0.015 0.0667 0.214 0.0667
1708772582.5175 0.217 0.016 0.0652 0.217 0.0652
1708772582.5265 0.220 0.016 0.0652 0.221 0.0652
1708772582.5338 0.223 0.016 0.0636 0.223 0.0636
1708772582.5416 0.226 0.016 0.0605 0.227 0.0605
1708772582.5505 0.229 0.016 0.0528 0.230 0.0528
1708772582.5578 0.233 0.017 0.0481 0.233 0.0481
1708772582.5659 0.236 0.017 0.0497 0.237 0.0497
1708772582.5737 0.239 0.017 0.0497 0.240 0.0497
1708772582.5820 0.242 0.017 0.0450 0.242 0.0450
1708772582.5899 0.245 0.017 0.0357 0.246 0.0357
1708772582.5976 0.248 0.017 0.0326 0.249 0.0326
1708772582.6059 0.251 0.017 0.0326 0.252 0.0326
1708772582.6139 0.254 0.018 0.0326 0.255 0.0326
1708772582.6216 0.257 0.018 0.0264 0.258 0.0264
1708772582.6298 0.261 0.018 0.0186 0.261 0.0186
1708772582.6381 0.264 0.018 0.0171 0.265 0.0171
1708772582.6465 0.267 0.018 0.0171 0.268 0.0171
1708772582.6545 0.270 0.018 0.0124 0.271 0.0124
1708772582.6617 0.274 0.018 0.0078 0.274 0.0078
1708772582.6705 0.277 0.018 0.0031 0.278 0.0031
1708772582.6776 0.280 0.018 0.0031 0.280 0.0031
1708772582.6859 0.283 0.018 0.0000 0.284 0.0000
1708772582.6944 0.286 0.018 -0.0062 0.287 -0.0062
1708772582.7024 0.289 0.018 -0.0124 0.290 -0.0124
1708772582.7095 0.293 0.018 -0.0155 0.293 -0.0155
1708772582.7183 0.296 0.018 -0.0171 0.297 -0.0171
1708772582.7266 0.299 0.018 -0.0202 0.300 -0.0202
1708772582.7338 0.302 0.018 -0.0264 0.303 -0.0264
1708772582.7431 0.306 0.018 -0.0310 0.307 -0.0310
1708772582.7502 0.309 0.017 -0.0326 0.309 -0.0326
1708772582.7585 0.312 0.017 -0.0357 0.313 -0.0357
1708772582.7662 0.315 0.017 -0.0419 0.316 -0.0419
1708772582.7744 0.319 0.017 -0.0466 0.319 -0.0466
1708772582.7824 0.322 0.017 -0.0466 0.323 -0.0466
1708772582.7895 0.325 0.017 -0.0481 0.325 -0.0481
1708772582.7977 0.328 0.017 -0.0528 0.329 -0.0528
1708772582.8060 0.331 0.016 -0.0590 0.332 -0.0590
1708772582.8139 0.334 0.016 -0.0636 0.335 -0.0636
1708772582.8221 0.338 0.016 -0.0667 0.339 -0.0667
1708772582.8304 0.341 0.016 -0.0667 0.342 -0.0667
1708772582.8379 0.344 0.016 -0.0714 0.345 -0.0714
1708772582.8457 0.347 0.015 -0.0792 0.348 -0.0792
1708772582.8539 0.350 0.015 -0.0823 0.351 -0.0823
1708772582.8617 0.353 0.015 -0.0838 0.354 -0.0838
1708772582.8699 0.357 0.015 -0.0838 0.358 -0.0838
1708772582.8780 0.360 0.014 -0.0900 0.361 -0.0900
1708772582.8857 0.363 0.014 -0.0978 0.364 -0.0978
1708772582.8935 0.366 0.014 -0.0993 0.367 -0.0993
1708772582.9018 0.369 0.013 -0.0978 0.370 -0.0978
1708772582.9105 0.372 0.013 -0.1009 0.373 -0.1009
1708772582.9184 0.376 0.013 -0.1087 0.376 -0.1087
1708772582.9260 0.379 0.012 -0.1149 0.380 -0.1149
1708772582.9341 0.382 0.012 -0.1133 0.383 -0.1133
1708772582.9423 0.385 0.012 -0.1102 0.386 -0.1102
1708772582.9505 0.388 0.011 -0.1133 0.389 -0.1133
1708772582.9586 0.391 0.011 -0.1211 0.392 -0.1211
1708772582.9667 0.395 0.010 -0.1257 0.396 -0.1257
1708772582.9744 0.398 0.010 -0.1257 0.399 -0.1257
1708772582.9825 0.401 0.010 -0.1242 0.402 -0.1242
1708772582.9908 0.404 0.009 -0.1273 0.405 -0.1273
1708772582.9977 0.407 0.009 -0.1304 0.408 -0.1304
1708772583.0059 0.411 0.008 -0.1350 0.412 -0.1350
1708772583.0142 0.414 0.008 -0.1366 0.415 -0.1366
1708772583.0225 0.417 0.008 -0.1366 0.418 -0.1366
1708772583.0303 0.420 0.007 -0.1382 0.422 -0.1382
1708772583.0385 0.424 0.007 -0.1428 0.425 -0.1428
1708772583.0464 0.427 0.006 -0.1444 0.429 -0.1444
1708772583.0541 0.430 0.006 -0.1459 0.431 -0.1459
1708772583.0621 0.433 0.005 -0.1428 0.434 -0.1428
1708772583.0704 0.437 0.005 -0.1428 0.438 -0.1428
1708772583.0783 0.440 0.004 -0.1475 0.442 -0.1475
1708772583.0855 0.443 0.004 -0.1521 0.444 -0.1521
1708772583.0944 0.446 0.003 -0.1506 0.447 -0.1506
1708772583.1031 0.448 0.003 -0.1459 0.450 -0.1459
1708772583.1102 0.452 0.002 -0.1444 0.454 -0.1444
1708772583.1185 0.455 0.002 -0.1506 0.457 -0.1506
1708772583.1262 0.458 0.002 -0.1552 0.460 -0.1552
1708772583.1345 0.461 0.001 -0.1521 0.462 -0.1521
1708772583.1423 0.464 0.001 -0.1459 0.466 -0.1459
1708772583.1498 0.467 0.000 -0.1459 0.469 -0.1459
1708772583.1579 0.471 -0.000 -0.1521 0.473 -0.1521
1708772583.1663 0.474 -0.001 -0.1537 0.475 -0.1537
1708772583.1740 0.476 -0.001 -0.1490 0.478 -0.1490
1708772583.1822 0.480 -0.002 -0.1459 0.482 -0.1459
1708772583.1900 0.483 -0.002 -0.1490 0.485 -0.1490
1708772583.1976 0.486 -0.003 -0.1521 0.488 -0.1521
1708772583.2058 0.489 -0.003 -0.1521 0.491 -0.1521
1708772583.2140 0.492 -0.004 -0.1459 0.495 -0.1459
1708772583.2218 0.496 -0.004 -0.1444 0.498 -0.1444
1708772583.2300 0.499 -0.005 -0.1506 0.501 -0.1506
1708772583.2381 0.502 -0.005 -0.1521 0.504 -0.1521
1708772583.2464 0.505 -0.006 -0.1459 0.507 -0.1459
1708772583.2536 0.508 -0.006 -0.1397 0.510 -0.1397
1708772583.2618 0.511 -0.006 -0.1397 0.514 -0.1397
1708772583.2696 0.515 -0.007 -0.1444 0.517 -0.1444
1708772583.2778 0.518 -0.007 -0.1444 0.520 -0.1444
1708772583.2865 0.521 -0.008 -0.1366 0.523 -0.1366
1708772583.2938 0.524 -0.008 -0.1304 0.527 -0.1304
1708772583.3020 0.528 -0.009 -0.1319 0.530 -0.1319
1708772583.3103 0.530 -0.009 -0.1350 0.533 -0.1350
1708772583.3180 0.533 -0.009 -0.1319 0.536 -0.1319
1708772583.3262 0.537 -0.010 -0.1273 0.539 -0.1273
1708772583.3344 0.540 -0.010 -0.1242 0.543 -0.1242
1708772583.3420 0.543 -0.011 -0.1226 0.546 -0.1226
1708772583.3502 0.546 -0.011 -0.1226 0.549 -0.1226
1708772583.3584 0.549 -0.011 -0.1195 0.552 -0.1195
1708772583.3661 0.553 -0.012 -0.1149 0.556 -0.1149
1708772583.3742 0.556 -0.012 -0.1118 0.559 -0.1118
1708772583.3825 0.559 -0.013 -0.1102 0.561 -0.1102
1708772583.3899 0.562 -0.013 -0.1087 0.565 -0.1087
1708772583.3981 0.566 -0.013 -0.1040 0.568 -0.1040
1708772583.4065 0.569 -0.014 -0.1009 0.571 -0.1009
1708772583.4143 0.571 -0.014 -0.0993 0.574 -0.0993
1708772583.4224 0.575 -0.014 -0.0947 0.577 -0.0947
1708772583.4296 0.578 -0.014 -0.0916 0.581 -0.0916
1708772583.4386 0.581 -0.015 -0.0916 0.584 -0.0916
1708772583.4463 0.584 -0.015 -0.0885 0.587 -0.0885
1708772583.4536 0.587 -0.015 -0.0823 0.590 -0.0823
1708772583.4633 0.591 -0.016 -0.0776 0.593 -0.0776
1708772583.4698 0.594 -0.016 -0.0776 0.597 -0.0776
1708772583.4782 0.597 -0.016 -0.0776 0.600 -0.0776
1708772583.4860 0.600 -0.016 -0.0714 0.603 -0.0714
1708772583.4938 0.603 -0.016 -0.0636 0.606 -0.0636
1708772583.5021 0.606 -0.017 -0.0621 0.609 -0.0621
1708772583.5096 0.610 -0.017 -0.0621 0.613 -0.0621
1708772583.5179 0.613 -0.017 -0.0590 0.616 -0.0590
1708772583.5261 0.616 -0.017 -0.0512 0.619 -0.0512
1708772583.5340 0.619 -0.017 -0.0450 0.622 -0.0450
1708772583.5418 0.622 -0.018 -0.0450 0.625 -0.0450
1708772583.5500 0.626 -0.018 -0.0450 0.629 -0.0450
1708772583.5575 0.629 -0.018 -0.0404 0.632 -0.0404
1708772583.5657 0.632 -0.018 -0.0326 0.635 -0.0326
1708772583.5740 0.635 -0.018 -0.0295 0.638 -0.0295
1708772583.5817 0.638 -0.018 -0.0295 0.641 -0.0295
1708772583.5906 0.642 -0.018 -0.0264 0.644 -0.0264
1708772583.5976 0.645 -0.018 -0.0202 0.648 -0.0202
1708772583.6064 0.648 -0.018 -0.0155 0.651 -0.0155
1708772583.6135 0.651 -0.018 -0.0124 0.654 -0.0124
1708772583.6218 0.654 -0.018 -0.0109 0.657 -0.0109
1708772583.6295 0.658 -0.018 -0.0093 0.660 -0.0093
1708772583.6377 0.661 -0.019 -0.0047 0.664 -0.0047
1708772583.6465 0.664 -0.019 0.0016 0.667 0.0016
1708772583.6542 0.667 -0.019 0.0062 0.670 0.0062
1708772583.6626 0.670 -0.018 0.0062 0.673 0.0062
1708772583.6698 0.674 -0.018 0.0078 0.677 0.0078
1708772583.6775 0.677 -0.018 0.0140 0.680 0.0140
1708772583.6858 0.680 -0.018 0.0186 0.683 0.0186
1708772583.6945 0.682 -0.018 0.0186 0.685 0.0186
1708772583.7022 0.686 -0.018 0.0217 0.689 0.0217
1708772583.7104 0.690 -0.018 0.0248 0.693 0.0248
1708772583.7176 0.693 -0.018 0.0295 0.696 0.0295
1708772583.7265 0.696 -0.018 0.0341 0.699 0.0341
1708772583.7346 0.698 -0.018 0.0341 0.701 0.0341
1708772583.7424 0.702 -0.018 0.0373 0.705 0.0373
1708772583.7502 0.706 -0.018 0.0388 0.709 0.0388
1708772583.7584 0.709 -0.018 0.0435 0.712 0.0435
1708772583.7656 0.711 -0.017 0.0481 0.714 0.0481
1708772583.7744 0.714 -0.017 0.0512 0.717 0.0512
1708772583.7821 0.718 -0.017 0.0497 0.721 0.0497
1708772583.7899 0.722 -0.017 0.0528 0.725 0.0528
1708772583.7977 0.725 -0.017 0.0574 0.727 0.0574
1708772583.8060 0.727 -0.017 0.0605 0.730 0.0605
1708772583.8142 0.730 -0.016 0.0636 0.733 0.0636
1708772583.8229 0.734 -0.016 0.0636 0.737 0.0636
1708772583.8300 0.738 -0.016 0.0652 0.740 0.0652
1708772583.8384 0.741 -0.016 0.0683 0.743 0.0683
1708772583.8457 0.743 -0.016 0.0699 0.746 0.0699
1708772583.8540 0.746 -0.015 0.0699 0.749 0.0699
1708772583.8623 0.749 -0.015 0.0730 0.752 0.0730
1708772583.8698 0.753 -0.015 0.0761 0.756 0.0761
1708772583.8781 0.756 -0.015 0.0761 0.759 0.0761
1708772583.8863 0.759 -0.014 0.0776 0.762 0.0776
1708772583.8937 0.762 -0.014 0.0792 0.765 0.0792
1708772583.9019 0.765 -0.014 0.0807 0.768 0.0807
1708772583.9103 0.769 -0.014 0.0838 0.772 0.0838
1708772583.9180 0.772 -0.013 0.0838 0.775 0.0838
1708772583.9262 0.775 -0.013 0.0823 0.778 0.0823
1708772583.9345 0.778 -0.013 0.0838 0.781 0.0838
1708772583.9419 0.782 -0.012 0.0869 0.785 0.0869
1708772583.9502 0.785 -0.012 0.0869 0.788 0.0869
1708772583.9584 0.788 -0.012 0.0854 0.791 0.0854
1708772583.9662 0.791 -0.012 0.0854 0.794 0.0854
1708772583.9745 0.794 -0.011 0.0854 0.798 0.0854
1708772583.9817 0.798 -0.011 0.0854 0.801 0.0854
1708772583.9905 0.801 -0.011 0.0854 0.804 0.0854
1708772583.9988 0.804 -0.011 0.0869 0.807 0.0869
1708772584.0059 0.807 -0.010 0.0854 0.810 0.0854
1708772584.0137 0.811 -0.010 0.0854 0.814 0.0854
1708772584.0231 0.814 -0.010 0.0838 0.817 0.0838
1708772584.0302 0.816 -0.010 0.0854 0.819 0.0854
1708772584.0380 0.820 -0.009 0.0854 0.823 0.0854
1708772584.0469 0.823 -0.009 0.0838 0.826 0.0838
1708772584.0539 0.826 -0.009 0.0823 0.830 0.0823
1708772584.0616 0.829 -0.008 0.0807 0.832 0.0807
1708772584.0709 0.832 -0.008 0.0807 0.835 0.0807
1708772584.0780 0.835 -0.008 0.0838 0.839 0.0838
1708772584.0860 0.839 -0.008 0.0807 0.842 0.0807
1708772584.0948 0.842 -0.007 0.0823 0.845 0.0823
1708772584.1020 0.844 -0.007 0.0807 0.848 0.0807
1708772584.1098 0.847 -0.007 0.0745 0.851 0.0745
1708772584.1181 0.851 -0.007 0.0745 0.854 0.0745
1708772584.1264 0.854 -0.006 0.0792 0.858 0.0792
1708772584.1341 0.857 -0.006 0.0776 0.860 0.0776
1708772584.1429 0.860 -0.006 0.0699 0.864 0.0699
1708772584.1500 0.864 -0.006 0.0667 0.867 0.0667
1708772584.1578 0.867 -0.006 0.0699 0.870 0.0699
1708772584.1670 0.870 -0.005 0.0730 0.873 0.0730
1708772584.1742 0.873 -0.005 0.0699 0.876 0.0699
1708772584.1829 0.876 -0.005 0.0652 0.880 0.0652
1708772584.1907 0.880 -0.005 0.0636 0.883 0.0636
1708772584.1978 0.883 -0.004 0.0652 0.886 0.0652
1708772584.2055 0.886 -0.004 0.0667 0.889 0.0667
1708772584.2148 0.888 -0.004 0.0636 0.892 0.0636
1708772584.2220 0.892 -0.004 0.0574 0.895 0.0574
1708772584.2296 0.896 -0.004 0.0559 0.899 0.0559
1708772584.2388 0.899 -0.003 0.0574 0.902 0.0574
1708772584.2456 0.901 -0.003 0.0590 0.905 0.0590
1708772584.2535 0.904 -0.003 0.0574 0.908 0.0574
1708772584.2630 0.908 -0.003 0.0528 0.911 0.0528
1708772584.2702 0.911 -0.003 0.0497 0.915 0.0497
1708772584.2777 0.914 -0.003 0.0512 0.918 0.0512
1708772584.2866 0.917 -0.002 0.0512 0.921 0.0512
1708772584.2944 0.920 -0.002 0.0466 0.924 0.0466
1708772584.3022 0.924 -0.002 0.0435 0.928 0.0435
1708772584.3105 0.927 -0.002 0.0435 0.931 0.0435
1708772584.3185 0.930 -0.002 0.0450 0.934 0.0450
1708772584.3264 0.933 -0.002 0.0435 0.937 0.0435
1708772584.3346 0.937 -0.002 0.0404 0.940 0.0404
1708772584.3425 0.940 -0.001 0.0357 0.944 0.0357
1708772584.3503 0.943 -0.001 0.0373 0.947 0.0373
1708772584.3586 0.946 -0.001 0.0388 0.950 0.0388
1708772584.3655 0.949 -0.001 0.0357 0.953 0.0357
1708772584.3745 0.953 -0.001 0.0310 0.956 0.0310
1708772584.3827 0.956 -0.001 0.0295 0.959 0.0295
1708772584.3905 0.959 -0.001 0.0326 0.963 0.0326
1708772584.3983 0.963 -0.001 0.0310 0.966 0.0310
1708772584.4071 0.966 -0.001 0.0264 0.969 0.0264
1708772584.4141 0.969 -0.001 0.0217 0.972 0.0217
1708772584.4219 0.972 -0.000 0.0202 0.975 0.0202
1708772584.4302 0.975 -0.000 0.0233 0.979 0.0233
1708772584.4384 0.978 -0.000 0.0233 0.982 0.0233
1708772584.4457 0.982 -0.000 0.0171 0.985 0.0171
1708772584.4549 0.985 -0.000 0.0124 0.988 0.0124
1708772584.4620 0.988 -0.000 0.0140 0.991 0.0140
1708772584.4698 0.992 -0.000 0.0155 0.995 0.0155
1708772584.4790 0.995 -0.000 0.0140 0.998 0.0140
1708772584.4863 0.998 -0.000 0.0093 1.001 0.0093
1708772584.4936 1.001 -0.000 0.0047 1.005 0.0047
1708772584.5027 1.004 -0.000 0.0047 1.008 0.0047
1708772584.5098 1.007 0.000 0.0078 1.010 0.0078
1708772584.5177 1.010 0.000 0.0062 1.014 0.0062
1708772584.5270 1.013 0.000 0.0016 1.017 0.0016
1708772584.5342 1.016 0.000 -0.0031 1.020 -0.0031
1708772584.5425 1.020 0.000 -0.0016 1.023 -0.0016
1708772584.5507 1.023 0.000 0.0000 1.026 0.0000
1708772584.5579 1.026 0.000 -0.0016 1.029 -0.0016
1708772584.5656 1.029 0.000 -0.0062 1.032 -0.0062
1708772584.5749 1.032 -0.000 -0.0093 1.036 -0.0093
1708772584.6010 1.043 -0.000 -0.0078 1.047 -0.0078
1708772584.6065 1.046 -0.000 -0.0109 1.050 -0.0109
1708772584.6143 1.049 -0.000 -0.0124 1.053 -0.0124
1708772584.6242 1.051 -0.000 -0.0124 1.055 -0.0124
1708772584.6308 1.054 -0.000 -0.0124 1.057 -0.0124
1708772584.6387 1.058 -0.000 -0.0140 1.061 -0.0140
1708772584.6474 1.062 -0.000 -0.0171 1.065 -0.0171
1708772584.6546 1.064 -0.000 -0.0186 1.068 -0.0186
1708772584.6624 1.067 -0.000 -0.0171 1.070 -0.0171
1708772584.6723 1.070 -0.000 -0.0186 1.074 -0.0186
1708772584.6789 1.074 -0.001 -0.0202 1.077 -0.0202
1708772584.6866 1.078 -0.001 -0.0233 1.081 -0.0233
1708772584.6963 1.081 -0.001 -0.0248 1.084 -0.0248
1708772584.7035 1.082 -0.001 -0.0248 1.086 -0.0248
1708772584.7113 1.086 -0.001 -0.0264 1.089 -0.0264
1708772584.7202 1.089 -0.001 -0.0279 1.093 -0.0279
1708772584.7267 1.093 -0.001 -0.0310 1.096 -0.0310
1708772584.7354 1.096 -0.001 -0.0310 1.099 -0.0310
1708772584.7442 1.098 -0.001 -0.0326 1.102 -0.0326
1708772584.7514 1.101 -0.001 -0.0341 1.105 -0.0341
1708772584.7592 1.105 -0.001 -0.0373 1.109 -0.0373
1708772584.7682 1.108 -0.002 -0.0388 1.112 -0.0388
1708772584.7748 1.111 -0.002 -0.0388 1.114 -0.0388
1708772584.7831 1.114 -0.002 -0.0419 1.117 -0.0419
1708772584.7920 1.117 -0.002 -0.0466 1.121 -0.0466
1708772584.7992 1.120 -0.002 -0.0481 1.124 -0.0481
1708772584.8070 1.124 -0.002 -0.0466 1.127 -0.0466
1708772584.8158 1.127 -0.002 -0.0481 1.131 -0.0481
1708772584.8235 1.130 -0.003 -0.0528 1.133 -0.0528
1708772584.8310 1.133 -0.003 -0.0574 1.137 -0.0574
1708772584.8398 1.136 -0.003 -0.0559 1.140 -0.0559
1708772584.8474 1.140 -0.003 -0.0543 1.143 -0.0543
1708772584.8548 1.143 -0.003 -0.0559 1.146 -0.0559
1708772584.8647 1.146 -0.003 -0.0621 1.149 -0.0621
1708772584.8711 1.149 -0.004 -0.0667 1.152 -0.0667
1708772584.8788 1.152 -0.004 -0.0667 1.156 -0.0667
1708772584.8888 1.155 -0.004 -0.0652 1.159 -0.0652
1708772584.8953 1.158 -0.004 -0.0652 1.162 -0.0652
1708772584.9027 1.161 -0.004 -0.0667 1.165 -0.0667
1708772584.9126 1.164 -0.005 -0.0699 1.168 -0.0699
1708772584.9190 1.167 -0.005 -0.0730 1.171 -0.0730
1708772584.9268 1.171 -0.005 -0.0714 1.174 -0.0714
1708772584.9367 1.174 -0.005 -0.0699 1.177 -0.0699
1708772584.9433 1.177 -0.006 -0.0714 1.180 -0.0714
1708772584.9506 1.180 -0.006 -0.0745 1.184 -0.0745
1708772584.9614 1.183 -0.006 -0.0761 1.187 -0.0761
1708772584.9669 1.186 -0.006 -0.0776 1.190 -0.0776
1708772584.9749 1.189 -0.006 -0.0776 1.193 -0.0776
1708772584.9838 1.192 -0.007 -0.0776 1.195 -0.0776
1708772584.9914 1.195 -0.007 -0.0807 1.199 -0.0807
