% Pose without folding and reset (log_20240224_132048.821/log_pose_abs.txt)
% 1 	Time (sec)
% 2,3 	Position x,y (m)
% 4 	heading (rad)
% 5 	Driven distance (m) - signed
% 6 	Turned angle (rad) - signed
1708777249.8847 0.000 0.000 0.0000 0.000 0.0000
1708777249.8923 0.000 0.000 0.0000 0.000 0.0000
1708777249.8995 0.000 0.000 0.0000 0.000 0.0000
1708777249.9083 0.000 0.000 0.0000 0.000 0.0000
1708777249.9153 0.000 0.000 0.0000 0.000 0.0000
1708777249.9233 0.000 0.000 0.0000 0.000 0.0000
1708777249.9319 0.000 0.000 0.0000 0.000 0.0000
1708777249.9405 0.000 0.000 0.0000 0.000 0.0000
1708777249.9483 0.000 0.000 0.0000 0.000 0.0000
1708777249.9558 0.000 0.000 0.0000 0.000 0.0000
1708777249.9639 0.000 0.000 0.0000 0.000 0.0000
1708777249.9722 0.000 0.000 0.0000 0.000 0.0000
1708777249.9802 0.000 0.000 0.0000 0.000 0.0000
1708777249.9886 0.000 0.000 0.0000 0.000 0.0000
1708777249.9954 0.000 0.000 0.0000 0.000 0.0000
1708777250.0038 0.000 0.000 0.0000 0.000 0.0000
1708777250.0114 0.000 0.000 0.0016 0.000 0.0016
1708777250.0198 0.003 0.000 0.0000 0.003 0.0000
1708777250.0277 0.006 -0.000 -0.0016 0.006 -0.0016
1708777250.0368 0.008 -0.000 -0.0031 0.008 -0.0031
1708777250.0441 0.010 -0.000 -0.0016 0.010 -0.0016
1708777250.0515 0.013 -0.000 -0.0016 0.013 -0.0016
1708777250.0599 0.016 -0.000 -0.0016 0.016 -0.0016
1708777250.0674 0.020 -0.000 -0.0031 0.020 -0.0031
1708777250.0755 0.024 -0.000 -0.0031 0.024 -0.0031
1708777250.0841 0.028 -0.000 -0.0047 0.028 -0.0047
1708777250.0923 0.033 -0.000 -0.0047 0.033 -0.0047
1708777250.0994 0.038 -0.000 -0.0047 0.038 -0.0047
1708777250.1080 0.043 -0.000 -0.0062 0.043 -0.0062
1708777250.1156 0.048 -0.000 -0.0078 0.048 -0.0078
1708777250.1255 0.054 -0.000 -0.0062 0.054 -0.0062
1708777250.1315 0.059 -0.000 -0.0062 0.059 -0.0062
1708777250.1406 0.065 -0.000 -0.0047 0.065 -0.0047
1708777250.1487 0.070 -0.000 -0.0047 0.070 -0.0047
1708777250.1561 0.075 -0.000 -0.0062 0.075 -0.0062
1708777250.1637 0.081 -0.000 -0.0062 0.081 -0.0062
1708777250.1718 0.086 -0.000 -0.0047 0.086 -0.0047
1708777250.1794 0.092 -0.000 -0.0062 0.092 -0.0062
1708777250.1878 0.097 -0.000 -0.0078 0.097 -0.0078
1708777250.1955 0.102 -0.000 -0.0093 0.102 -0.0093
1708777250.2043 0.108 -0.001 -0.0093 0.108 -0.0093
1708777250.2119 0.115 -0.001 -0.0109 0.115 -0.0109
1708777250.2200 0.121 -0.001 -0.0124 0.121 -0.0124
1708777250.2274 0.126 -0.001 -0.0078 0.126 -0.0078
1708777250.2359 0.132 -0.001 -0.0062 0.132 -0.0062
1708777250.2437 0.139 -0.001 -0.0062 0.139 -0.0062
1708777250.2522 0.145 -0.001 -0.0109 0.145 -0.0109
1708777250.2596 0.152 -0.001 -0.0124 0.152 -0.0124
1708777250.2690 0.157 -0.001 -0.0093 0.157 -0.0093
1708777250.2757 0.163 -0.001 -0.0062 0.163 -0.0062
1708777250.2840 0.169 -0.001 -0.0047 0.169 -0.0047
1708777250.2918 0.175 -0.001 -0.0062 0.175 -0.0062
1708777250.3003 0.180 -0.001 -0.0078 0.180 -0.0078
1708777250.3074 0.186 -0.001 -0.0078 0.186 -0.0078
1708777250.3153 0.192 -0.001 -0.0093 0.192 -0.0093
1708777250.3237 0.198 -0.001 -0.0093 0.198 -0.0093
1708777250.3321 0.203 -0.001 -0.0109 0.203 -0.0109
1708777250.3407 0.209 -0.001 -0.0093 0.209 -0.0093
1708777250.3479 0.215 -0.001 -0.0093 0.215 -0.0093
1708777250.3554 0.221 -0.002 -0.0078 0.221 -0.0078
1708777250.3634 0.226 -0.002 -0.0062 0.226 -0.0062
1708777250.3719 0.231 -0.002 -0.0047 0.231 -0.0047
1708777250.3794 0.237 -0.002 -0.0047 0.237 -0.0047
1708777250.3873 0.244 -0.002 -0.0031 0.244 -0.0031
1708777250.3954 0.249 -0.002 -0.0031 0.249 -0.0031
1708777250.4039 0.254 -0.002 -0.0031 0.254 -0.0031
1708777250.4118 0.259 -0.002 -0.0031 0.259 -0.0031
1708777250.4203 0.265 -0.002 -0.0016 0.265 -0.0016
1708777250.4276 0.271 -0.002 -0.0000 0.271 -0.0000
1708777250.4357 0.277 -0.002 -0.0016 0.277 -0.0016
1708777250.4437 0.282 -0.002 -0.0016 0.282 -0.0016
1708777250.4521 0.287 -0.002 -0.0000 0.287 -0.0000
1708777250.4601 0.293 -0.002 -0.0000 0.293 -0.0000
1708777250.4674 0.299 -0.002 -0.0016 0.299 -0.0016
1708777250.4759 0.304 -0.002 -0.0000 0.304 -0.0000
1708777250.4838 0.309 -0.002 0.0031 0.309 0.0031
1708777250.4922 0.314 -0.002 0.0078 0.314 0.0078
1708777250.4997 0.321 -0.002 0.0093 0.321 0.0093
1708777250.5078 0.326 -0.002 0.0062 0.326 0.0062
1708777250.5163 0.331 -0.002 0.0078 0.331 0.0078
1708777250.5237 0.336 -0.002 0.0093 0.336 0.0093
1708777250.5317 0.342 -0.001 0.0093 0.342 0.0093
1708777250.5398 0.348 -0.001 0.0093 0.348 0.0093
1708777250.5484 0.353 -0.001 0.0093 0.353 0.0093
1708777250.5555 0.359 -0.001 0.0109 0.359 0.0109
1708777250.5640 0.364 -0.001 0.0124 0.364 0.0124
1708777250.5714 0.370 -0.001 0.0140 0.370 0.0140
1708777250.5794 0.375 -0.001 0.0140 0.376 0.0140
1708777250.5877 0.381 -0.001 0.0155 0.381 0.0155
1708777250.5959 0.386 -0.001 0.0202 0.386 0.0202
1708777250.6040 0.392 -0.001 0.0202 0.392 0.0202
1708777250.6113 0.398 -0.001 0.0217 0.398 0.0217
1708777250.6196 0.404 -0.001 0.0233 0.404 0.0233
1708777250.6277 0.408 -0.000 0.0248 0.409 0.0248
1708777250.6362 0.414 -0.000 0.0248 0.414 0.0248
1708777250.6443 0.421 -0.000 0.0248 0.421 0.0248
1708777250.6513 0.427 0.000 0.0248 0.427 0.0248
1708777250.6599 0.432 0.000 0.0264 0.432 0.0264
1708777250.6684 0.436 0.000 0.0264 0.436 0.0264
1708777250.6763 0.442 0.000 0.0264 0.442 0.0264
1708777250.6836 0.449 0.001 0.0295 0.449 0.0295
1708777250.6918 0.454 0.001 0.0310 0.455 0.0310
1708777250.6999 0.459 0.001 0.0295 0.459 0.0295
1708777250.7074 0.464 0.001 0.0295 0.465 0.0295
1708777250.7160 0.471 0.001 0.0326 0.471 0.0326
1708777250.7241 0.476 0.001 0.0341 0.476 0.0341
1708777250.7314 0.482 0.002 0.0357 0.482 0.0357
1708777250.7405 0.487 0.002 0.0357 0.488 0.0357
1708777250.7474 0.493 0.002 0.0404 0.493 0.0404
1708777250.7556 0.498 0.002 0.0388 0.498 0.0388
1708777250.7641 0.504 0.002 0.0404 0.504 0.0404
1708777250.7720 0.510 0.003 0.0388 0.510 0.0388
1708777250.7793 0.516 0.003 0.0404 0.516 0.0404
1708777250.7879 0.521 0.003 0.0404 0.521 0.0404
1708777250.7959 0.526 0.003 0.0435 0.526 0.0435
1708777250.8043 0.531 0.004 0.0435 0.531 0.0435
1708777250.8118 0.537 0.004 0.0404 0.538 0.0404
1708777250.8198 0.543 0.004 0.0388 0.543 0.0388
1708777250.8282 0.548 0.004 0.0450 0.548 0.0450
1708777250.8355 0.553 0.005 0.0497 0.553 0.0497
1708777250.8446 0.559 0.005 0.0497 0.559 0.0497
1708777250.8518 0.565 0.005 0.0466 0.565 0.0466
1708777250.8603 0.571 0.005 0.0466 0.571 0.0466
1708777250.8683 0.576 0.006 0.0497 0.576 0.0497
1708777250.8753 0.581 0.006 0.0528 0.581 0.0528
1708777250.8838 0.587 0.006 0.0512 0.587 0.0512
1708777250.8913 0.592 0.006 0.0481 0.592 0.0481
1708777250.8996 0.598 0.007 0.0481 0.598 0.0481
1708777250.9081 0.603 0.007 0.0512 0.603 0.0512
1708777250.9162 0.609 0.007 0.0543 0.609 0.0543
1708777250.9234 0.615 0.008 0.0528 0.615 0.0528
1708777250.9317 0.620 0.008 0.0512 0.621 0.0512
1708777250.9401 0.626 0.008 0.0528 0.626 0.0528
1708777250.9476 0.631 0.008 0.0559 0.631 0.0559
1708777250.9560 0.637 0.009 0.0590 0.637 0.0590
1708777250.9644 0.643 0.009 0.0590 0.643 0.0590
1708777250.9717 0.649 0.010 0.0590 0.649 0.0590
1708777250.9803 0.654 0.010 0.0590 0.654 0.0590
1708777250.9884 0.659 0.010 0.0605 0.660 0.0605
1708777250.9962 0.665 0.011 0.0636 0.665 0.0636
1708777251.0034 0.671 0.011 0.0636 0.672 0.0636
1708777251.0115 0.677 0.011 0.0621 0.677 0.0621
1708777251.0203 0.682 0.012 0.0621 0.682 0.0621
1708777251.0275 0.687 0.012 0.0636 0.687 0.0636
1708777251.0353 0.693 0.012 0.0636 0.693 0.0636
1708777251.0443 0.699 0.013 0.0652 0.699 0.0652
1708777251.0517 0.704 0.013 0.0667 0.704 0.0667
1708777251.0599 0.710 0.013 0.0652 0.710 0.0652
1708777251.0683 0.715 0.014 0.0605 0.716 0.0605
1708777251.0758 0.721 0.014 0.0636 0.722 0.0636
1708777251.0836 0.727 0.014 0.0667 0.727 0.0667
1708777251.0916 0.731 0.015 0.0652 0.732 0.0652
1708777251.1000 0.737 0.015 0.0636 0.737 0.0636
1708777251.1081 0.743 0.015 0.0621 0.743 0.0621
1708777251.1153 0.749 0.016 0.0667 0.750 0.0667
1708777251.1237 0.755 0.016 0.0667 0.755 0.0667
1708777251.1316 0.759 0.017 0.0667 0.759 0.0667
1708777251.1406 0.764 0.017 0.0652 0.765 0.0652
1708777251.1479 0.771 0.017 0.0636 0.772 0.0636
1708777251.1559 0.778 0.018 0.0652 0.778 0.0652
1708777251.1642 0.783 0.018 0.0683 0.783 0.0683
1708777251.1715 0.787 0.018 0.0683 0.788 0.0683
1708777251.1804 0.793 0.019 0.0652 0.793 0.0652
1708777251.1876 0.799 0.019 0.0636 0.799 0.0636
1708777251.1959 0.805 0.020 0.0621 0.806 0.0621
1708777251.2036 0.811 0.020 0.0621 0.811 0.0621
1708777251.2119 0.815 0.020 0.0605 0.816 0.0605
1708777251.2203 0.821 0.021 0.0574 0.821 0.0574
1708777251.2273 0.827 0.021 0.0559 0.828 0.0559
1708777251.2361 0.833 0.021 0.0543 0.833 0.0543
1708777251.2441 0.838 0.021 0.0559 0.839 0.0559
1708777251.2519 0.843 0.022 0.0543 0.844 0.0543
1708777251.2602 0.849 0.022 0.0497 0.850 0.0497
1708777251.2674 0.855 0.022 0.0466 0.855 0.0466
1708777251.2755 0.860 0.023 0.0466 0.861 0.0466
1708777251.2838 0.865 0.023 0.0450 0.866 0.0450
1708777251.2919 0.871 0.023 0.0419 0.872 0.0419
1708777251.2996 0.877 0.023 0.0388 0.878 0.0388
1708777251.3079 0.883 0.024 0.0373 0.883 0.0373
1708777251.3161 0.888 0.024 0.0357 0.888 0.0357
1708777251.3241 0.893 0.024 0.0326 0.894 0.0326
1708777251.3313 0.899 0.024 0.0310 0.900 0.0310
1708777251.3404 0.905 0.024 0.0295 0.905 0.0295
1708777251.3474 0.910 0.024 0.0310 0.911 0.0310
1708777251.3556 0.916 0.025 0.0310 0.916 0.0310
1708777251.3639 0.921 0.025 0.0233 0.922 0.0233
1708777251.3718 0.927 0.025 0.0140 0.927 0.0140
1708777251.3798 0.932 0.025 0.0155 0.933 0.0155
1708777251.3880 0.938 0.025 0.0202 0.938 0.0202
1708777251.3958 0.943 0.025 0.0155 0.944 0.0155
1708777251.4043 0.949 0.025 0.0093 0.949 0.0093
1708777251.4116 0.954 0.025 0.0047 0.955 0.0047
1708777251.4194 0.959 0.025 0.0109 0.960 0.0109
1708777251.4276 0.965 0.025 0.0093 0.965 0.0093
1708777251.4359 0.970 0.025 0.0031 0.971 0.0031
1708777251.4435 0.976 0.025 -0.0016 0.977 -0.0016
1708777251.4518 0.982 0.025 -0.0016 0.983 -0.0016
1708777251.4603 0.987 0.025 -0.0016 0.988 -0.0016
1708777251.4682 0.993 0.025 -0.0078 0.994 -0.0078
1708777251.4763 0.999 0.025 -0.0109 1.000 -0.0109
1708777251.4836 1.005 0.025 -0.0124 1.006 -0.0124
1708777251.4923 1.010 0.025 -0.0140 1.011 -0.0140
1708777251.4994 1.015 0.025 -0.0171 1.016 -0.0171
1708777251.5078 1.021 0.025 -0.0171 1.021 -0.0171
1708777251.5157 1.026 0.025 -0.0186 1.027 -0.0186
1708777251.5238 1.032 0.025 -0.0217 1.033 -0.0217
1708777251.5323 1.038 0.025 -0.0202 1.039 -0.0202
1708777251.5398 1.044 0.025 -0.0171 1.044 -0.0171
1708777251.5481 1.049 0.024 -0.0186 1.050 -0.0186
1708777251.5554 1.054 0.024 -0.0217 1.055 -0.0217
1708777251.5643 1.060 0.024 -0.0217 1.061 -0.0217
1708777251.5714 1.066 0.024 -0.0202 1.067 -0.0202
1708777251.5797 1.072 0.024 -0.0217 1.072 -0.0217
1708777251.5874 1.077 0.024 -0.0202 1.077 -0.0202
1708777251.5956 1.082 0.024 -0.0171 1.083 -0.0171
1708777251.6042 1.088 0.024 -0.0171 1.088 -0.0171
1708777251.6120 1.094 0.024 -0.0140 1.095 -0.0140
1708777251.6193 1.100 0.023 -0.0140 1.101 -0.0140
1708777251.6277 1.105 0.023 -0.0140 1.105 -0.0140
1708777251.6356 1.109 0.023 -0.0109 1.110 -0.0109
1708777251.6435 1.115 0.023 -0.0093 1.116 -0.0093
1708777251.6519 1.121 0.023 -0.0062 1.122 -0.0062
1708777251.6599 1.127 0.023 -0.0031 1.128 -0.0031
1708777251.6682 1.133 0.023 0.0000 1.133 0.0000
1708777251.6755 1.138 0.023 0.0000 1.139 0.0000
1708777251.6833 1.144 0.023 0.0000 1.145 0.0000
1708777251.6923 1.150 0.023 0.0031 1.150 0.0031
1708777251.6996 1.155 0.023 0.0047 1.156 0.0047
1708777251.7075 1.161 0.023 0.0078 1.162 0.0078
1708777251.7158 1.166 0.023 0.0093 1.167 0.0093
1708777251.7242 1.172 0.023 0.0078 1.173 0.0078
1708777251.7325 1.177 0.023 0.0078 1.178 0.0078
1708777251.7406 1.184 0.023 0.0124 1.184 0.0124
1708777251.7480 1.189 0.024 0.0155 1.190 0.0155
1708777251.7560 1.195 0.024 0.0155 1.195 0.0155
1708777251.7643 1.200 0.024 0.0140 1.200 0.0140
1708777251.7715 1.205 0.024 0.0140 1.206 0.0140
1708777251.7795 1.211 0.024 0.0155 1.212 0.0155
1708777251.7878 1.217 0.024 0.0202 1.217 0.0202
1708777251.7957 1.222 0.024 0.0217 1.222 0.0217
1708777251.8036 1.228 0.024 0.0217 1.229 0.0217
1708777251.8119 1.234 0.024 0.0217 1.235 0.0217
1708777251.8203 1.240 0.024 0.0248 1.240 0.0248
1708777251.8283 1.245 0.025 0.0279 1.246 0.0279
1708777251.8363 1.251 0.025 0.0295 1.251 0.0295
1708777251.8443 1.256 0.025 0.0310 1.257 0.0310
1708777251.8521 1.262 0.025 0.0310 1.263 0.0310
1708777251.8602 1.267 0.025 0.0341 1.268 0.0341
1708777251.8676 1.272 0.025 0.0373 1.273 0.0373
1708777251.8762 1.278 0.026 0.0388 1.279 0.0388
1708777251.8834 1.284 0.026 0.0388 1.285 0.0388
1708777251.8914 1.289 0.026 0.0388 1.290 0.0388
1708777251.9005 1.295 0.026 0.0388 1.295 0.0388
1708777251.9077 1.300 0.027 0.0435 1.301 0.0435
1708777251.9155 1.306 0.027 0.0450 1.307 0.0450
1708777251.9243 1.311 0.027 0.0419 1.312 0.0419
1708777251.9315 1.317 0.027 0.0419 1.317 0.0419
1708777251.9406 1.322 0.028 0.0450 1.323 0.0450
1708777251.9476 1.328 0.028 0.0528 1.329 0.0528
1708777251.9558 1.334 0.028 0.0528 1.335 0.0528
1708777251.9642 1.339 0.028 0.0528 1.340 0.0528
1708777251.9720 1.344 0.029 0.0543 1.345 0.0543
1708777251.9795 1.350 0.029 0.0528 1.351 0.0528
1708777251.9879 1.356 0.029 0.0559 1.357 0.0559
1708777251.9955 1.361 0.030 0.0574 1.362 0.0574
1708777252.0033 1.367 0.030 0.0590 1.368 0.0590
1708777252.0117 1.373 0.030 0.0574 1.374 0.0574
1708777252.0194 1.378 0.031 0.0574 1.378 0.0574
1708777252.0277 1.383 0.031 0.0590 1.384 0.0590
1708777252.0360 1.390 0.031 0.0605 1.391 0.0605
1708777252.0435 1.395 0.032 0.0621 1.396 0.0621
1708777252.0521 1.401 0.032 0.0636 1.401 0.0636
1708777252.0603 1.406 0.032 0.0652 1.407 0.0652
1708777252.0681 1.411 0.033 0.0667 1.412 0.0667
1708777252.0754 1.417 0.033 0.0683 1.418 0.0683
1708777252.0838 1.423 0.033 0.0683 1.424 0.0683
1708777252.0919 1.428 0.034 0.0667 1.429 0.0667
1708777252.1002 1.434 0.034 0.0683 1.434 0.0683
1708777252.1084 1.440 0.035 0.0714 1.441 0.0714
1708777252.1162 1.446 0.035 0.0714 1.447 0.0714
1708777252.1247 1.451 0.035 0.0714 1.452 0.0714
1708777252.1321 1.456 0.036 0.0730 1.457 0.0730
1708777252.1398 1.461 0.036 0.0745 1.462 0.0745
1708777252.1482 1.467 0.037 0.0761 1.468 0.0761
1708777252.1554 1.473 0.037 0.0761 1.474 0.0761
1708777252.1634 1.478 0.037 0.0761 1.480 0.0761
1708777252.1723 1.484 0.038 0.0761 1.485 0.0761
1708777252.1796 1.489 0.038 0.0792 1.490 0.0792
1708777252.1876 1.495 0.039 0.0792 1.496 0.0792
1708777252.1959 1.501 0.039 0.0776 1.502 0.0776
1708777252.2042 1.506 0.040 0.0776 1.507 0.0776
1708777252.2122 1.511 0.040 0.0807 1.513 0.0807
1708777252.2199 1.517 0.040 0.0823 1.518 0.0823
1708777252.2274 1.523 0.041 0.0807 1.524 0.0807
1708777252.2364 1.528 0.041 0.0807 1.530 0.0807
1708777252.2444 1.533 0.042 0.0807 1.534 0.0807
1708777252.2517 1.539 0.042 0.0854 1.540 0.0854
1708777252.2602 1.545 0.043 0.0869 1.547 0.0869
1708777252.2675 1.551 0.043 0.0869 1.552 0.0869
1708777252.2759 1.556 0.044 0.0869 1.557 0.0869
1708777252.2836 1.561 0.044 0.0900 1.562 0.0900
1708777252.2915 1.567 0.045 0.0900 1.568 0.0900
1708777252.2999 1.573 0.045 0.0885 1.574 0.0885
1708777252.3078 1.578 0.046 0.0900 1.580 0.0900
1708777252.3161 1.584 0.046 0.0931 1.585 0.0931
1708777252.3234 1.590 0.047 0.0962 1.591 0.0962
1708777252.3323 1.595 0.047 0.0947 1.597 0.0947
1708777252.3404 1.600 0.048 0.0931 1.602 0.0931
1708777252.3476 1.605 0.048 0.0947 1.607 0.0947
1708777252.3556 1.611 0.049 0.0978 1.613 0.0978
1708777252.3639 1.617 0.049 0.0962 1.618 0.0962
1708777252.3723 1.622 0.050 0.0931 1.624 0.0931
1708777252.3797 1.628 0.050 0.0916 1.630 0.0916
1708777252.3881 1.634 0.051 0.0947 1.636 0.0947
1708777252.3956 1.639 0.052 0.0978 1.641 0.0978
1708777252.4036 1.645 0.052 0.0978 1.646 0.0978
1708777252.4120 1.650 0.053 0.0947 1.652 0.0947
1708777252.4203 1.656 0.053 0.0931 1.658 0.0931
1708777252.4274 1.662 0.054 0.0947 1.664 0.0947
1708777252.4356 1.667 0.054 0.0962 1.669 0.0962
1708777252.4436 1.673 0.055 0.0931 1.674 0.0931
1708777252.4519 1.678 0.055 0.0931 1.680 0.0931
1708777252.4602 1.683 0.056 0.0931 1.685 0.0931
1708777252.4674 1.689 0.056 0.0947 1.691 0.0947
1708777252.4763 1.695 0.057 0.0931 1.697 0.0931
1708777252.4835 1.700 0.057 0.0900 1.702 0.0900
1708777252.4914 1.706 0.058 0.0885 1.708 0.0885
1708777252.5003 1.711 0.058 0.0885 1.713 0.0885
1708777252.5075 1.717 0.059 0.0900 1.719 0.0900
1708777252.5163 1.723 0.059 0.0885 1.725 0.0885
1708777252.5243 1.728 0.060 0.0869 1.731 0.0869
1708777252.5318 1.734 0.060 0.0854 1.736 0.0854
1708777252.5403 1.740 0.061 0.0854 1.742 0.0854
1708777252.5473 1.745 0.061 0.0838 1.747 0.0838
1708777252.5555 1.750 0.062 0.0792 1.753 0.0792
1708777252.5640 1.756 0.062 0.0776 1.758 0.0776
1708777252.5718 1.761 0.063 0.0792 1.764 0.0792
1708777252.5801 1.767 0.063 0.0792 1.770 0.0792
1708777252.5875 1.773 0.063 0.0761 1.776 0.0761
1708777252.5956 1.778 0.064 0.0714 1.781 0.0714
1708777252.6043 1.783 0.064 0.0683 1.786 0.0683
1708777252.6116 1.789 0.065 0.0667 1.792 0.0667
1708777252.6200 1.796 0.065 0.0652 1.798 0.0652
1708777252.6283 1.801 0.065 0.0621 1.803 0.0621
1708777252.6356 1.806 0.066 0.0605 1.808 0.0605
1708777252.6440 1.812 0.066 0.0574 1.814 0.0574
1708777252.6523 1.818 0.066 0.0559 1.820 0.0559
1708777252.6600 1.823 0.067 0.0543 1.826 0.0543
1708777252.6679 1.829 0.067 0.0512 1.831 0.0512
1708777252.6762 1.834 0.067 0.0497 1.837 0.0497
1708777252.6839 1.839 0.067 0.0497 1.842 0.0497
1708777252.6924 1.845 0.068 0.0481 1.848 0.0481
1708777252.6996 1.851 0.068 0.0450 1.854 0.0450
1708777252.7081 1.857 0.068 0.0435 1.859 0.0435
1708777252.7160 1.862 0.068 0.0419 1.864 0.0419
1708777252.7243 1.867 0.069 0.0404 1.869 0.0404
1708777252.7317 1.873 0.069 0.0388 1.876 0.0388
1708777252.7403 1.879 0.069 0.0373 1.882 0.0373
1708777252.7474 1.885 0.069 0.0341 1.887 0.0341
1708777252.7558 1.890 0.070 0.0341 1.892 0.0341
1708777252.7636 1.895 0.070 0.0341 1.898 0.0341
1708777252.7718 1.901 0.070 0.0310 1.903 0.0310
1708777252.7800 1.907 0.070 0.0279 1.909 0.0279
1708777252.7881 1.912 0.070 0.0248 1.915 0.0248
1708777252.7956 1.918 0.070 0.0233 1.921 0.0233
1708777252.8039 1.924 0.071 0.0233 1.926 0.0233
1708777252.8118 1.929 0.071 0.0233 1.931 0.0233
1708777252.8203 1.934 0.071 0.0202 1.937 0.0202
1708777252.8275 1.940 0.071 0.0171 1.943 0.0171
1708777252.8357 1.946 0.071 0.0155 1.949 0.0155
1708777252.8436 1.952 0.071 0.0124 1.954 0.0124
1708777252.8520 1.957 0.071 0.0109 1.960 0.0109
1708777252.8599 1.962 0.071 0.0124 1.965 0.0124
1708777252.8682 1.968 0.071 0.0109 1.971 0.0109
1708777252.8761 1.974 0.071 0.0078 1.976 0.0078
1708777252.8843 1.980 0.071 0.0047 1.982 0.0047
1708777252.8923 1.985 0.071 0.0047 1.988 0.0047
1708777252.8996 1.991 0.071 0.0047 1.993 0.0047
1708777252.9076 1.996 0.071 0.0031 1.998 0.0031
1708777252.9157 2.001 0.071 0.0000 2.003 0.0000
1708777252.9233 2.006 0.071 -0.0016 2.009 -0.0016
1708777252.9323 2.012 0.071 -0.0016 2.015 -0.0016
1708777252.9403 2.018 0.071 0.0000 2.021 0.0000
1708777252.9483 2.024 0.071 0.0000 2.027 0.0000
1708777252.9562 2.030 0.071 0.0000 2.032 0.0000
1708777252.9634 2.035 0.071 0.0000 2.037 0.0000
1708777252.9719 2.040 0.071 -0.0016 2.043 -0.0016
1708777252.9801 2.046 0.071 -0.0016 2.048 -0.0016
1708777252.9875 2.052 0.071 -0.0031 2.054 -0.0031
1708777252.9959 2.057 0.071 -0.0031 2.060 -0.0031
1708777253.0042 2.062 0.071 -0.0031 2.065 -0.0031
1708777253.0118 2.068 0.071 -0.0016 2.070 -0.0016
1708777253.0202 2.074 0.071 -0.0016 2.076 -0.0016
1708777253.0274 2.080 0.071 -0.0016 2.082 -0.0016
1708777253.0357 2.085 0.071 0.0016 2.087 0.0016
1708777253.0437 2.090 0.071 0.0031 2.092 0.0031
1708777253.0514 2.096 0.071 0.0062 2.098 0.0062
1708777253.0602 2.102 0.071 0.0062 2.104 0.0062
1708777253.0676 2.107 0.071 0.0047 2.110 0.0047
1708777253.0755 2.113 0.071 0.0078 2.116 0.0078
1708777253.0838 2.118 0.071 0.0078 2.121 0.0078
1708777253.0917 2.124 0.072 0.0078 2.126 0.0078
1708777253.1003 2.129 0.072 0.0062 2.132 0.0062
1708777253.1079 2.136 0.072 0.0093 2.138 0.0093
1708777253.1153 2.141 0.072 0.0109 2.144 0.0109
1708777253.1243 2.146 0.072 0.0124 2.149 0.0124
