% Pose without folding and reset (log_20240224_141023.672/log_pose_abs.txt)
% 1 	Time (sec)
% 2,3 	Position x,y (m)
% 4 	heading (rad)
% 5 	Driven distance (m) - signed
% 6 	Turned angle (rad) - signed
1708780224.6972 0.000 0.000 0.0000 0.000 0.0000
1708780224.7052 0.000 0.000 0.0000 0.000 0.0000
1708780224.7124 0.000 0.000 0.0000 0.000 0.0000
1708780224.7201 0.000 0.000 0.0000 0.000 0.0000
1708780224.7281 0.000 0.000 0.0031 0.000 0.0031
1708780224.7362 0.003 0.000 0.0031 0.003 0.0031
1708780224.7440 0.007 0.000 0.0016 0.007 0.0016
1708780224.7521 0.010 0.000 0.0016 0.010 0.0016
1708780224.7606 0.011 0.000 0.0016 0.011 0.0016
1708780224.7688 0.015 0.000 0.0047 0.015 0.0047
1708780224.7764 0.019 0.000 0.0047 0.019 0.0047
1708780224.7840 0.024 0.000 0.0062 0.024 0.0062
1708780224.7921 0.028 0.000 0.0016 0.028 0.0016
1708780224.8006 0.032 0.000 -0.0031 0.032 -0.0031
1708780224.8087 0.038 0.000 -0.0047 0.038 -0.0047
1708780224.8169 0.044 0.000 -0.0109 0.044 -0.0109
1708780224.8244 0.050 -0.000 -0.0171 0.050 -0.0171
1708780224.8331 0.056 -0.000 -0.0217 0.056 -0.0217
1708780224.8401 0.062 -0.000 -0.0264 0.062 -0.0264
1708780224.8523 0.068 -0.001 -0.0326 0.068 -0.0326
1708780224.8564 0.074 -0.001 -0.0388 0.074 -0.0388
1708780224.8646 0.081 -0.001 -0.0450 0.081 -0.0450
1708780224.8721 0.086 -0.001 -0.0466 0.086 -0.0466
1708780224.8801 0.091 -0.001 -0.0497 0.091 -0.0497
1708780224.8889 0.098 -0.002 -0.0559 0.098 -0.0559
1708780224.8970 0.105 -0.002 -0.0590 0.105 -0.0590
1708780224.9043 0.111 -0.003 -0.0636 0.111 -0.0636
1708780224.9136 0.117 -0.003 -0.0699 0.117 -0.0699
1708780224.9205 0.123 -0.003 -0.0730 0.123 -0.0730
1708780224.9288 0.130 -0.004 -0.0761 0.130 -0.0761
1708780224.9373 0.137 -0.004 -0.0776 0.137 -0.0776
1708780224.9445 0.143 -0.005 -0.0823 0.144 -0.0823
1708780224.9534 0.150 -0.006 -0.0869 0.150 -0.0869
1708780224.9610 0.156 -0.006 -0.0838 0.156 -0.0838
1708780224.9686 0.163 -0.007 -0.0823 0.163 -0.0823
1708780224.9766 0.170 -0.007 -0.0838 0.170 -0.0838
1708780224.9849 0.177 -0.008 -0.0885 0.177 -0.0885
1708780224.9924 0.184 -0.008 -0.0916 0.184 -0.0916
1708780225.0001 0.191 -0.009 -0.0931 0.191 -0.0931
1708780225.0083 0.198 -0.010 -0.0962 0.198 -0.0962
1708780225.0161 0.205 -0.010 -0.0962 0.205 -0.0962
1708780225.0250 0.211 -0.011 -0.0962 0.211 -0.0962
1708780225.0330 0.217 -0.012 -0.0993 0.218 -0.0993
1708780225.0403 0.224 -0.012 -0.1024 0.225 -0.1024
1708780225.0488 0.231 -0.013 -0.1040 0.232 -0.1040
1708780225.0567 0.238 -0.014 -0.1040 0.239 -0.1040
1708780225.0647 0.244 -0.014 -0.1040 0.245 -0.1040
1708780225.0722 0.251 -0.015 -0.1071 0.252 -0.1071
1708780225.0802 0.258 -0.016 -0.1102 0.258 -0.1102
1708780225.0887 0.263 -0.017 -0.1133 0.264 -0.1133
1708780225.0961 0.269 -0.017 -0.1133 0.270 -0.1133
1708780225.1044 0.276 -0.018 -0.1149 0.276 -0.1149
1708780225.1128 0.282 -0.019 -0.1180 0.283 -0.1180
1708780225.1201 0.289 -0.020 -0.1195 0.290 -0.1195
1708780225.1282 0.295 -0.020 -0.1195 0.296 -0.1195
1708780225.1366 0.301 -0.021 -0.1195 0.302 -0.1195
1708780225.1448 0.308 -0.022 -0.1195 0.309 -0.1195
1708780225.1535 0.315 -0.023 -0.1211 0.316 -0.1211
1708780225.1633 0.321 -0.023 -0.1195 0.322 -0.1195
1708780225.1703 0.327 -0.024 -0.1180 0.328 -0.1180
1708780225.1762 0.334 -0.025 -0.1164 0.335 -0.1164
1708780225.1845 0.339 -0.026 -0.1149 0.341 -0.1149
1708780225.1929 0.344 -0.026 -0.1133 0.345 -0.1133
1708780225.2004 0.350 -0.027 -0.1102 0.351 -0.1102
1708780225.2091 0.357 -0.027 -0.1071 0.358 -0.1071
1708780225.2164 0.363 -0.028 -0.1040 0.365 -0.1040
1708780225.2245 0.370 -0.029 -0.0978 0.371 -0.0978
1708780225.2331 0.376 -0.029 -0.0916 0.377 -0.0916
1708780225.2405 0.382 -0.030 -0.0869 0.383 -0.0869
1708780225.2486 0.389 -0.031 -0.0807 0.390 -0.0807
1708780225.2565 0.395 -0.031 -0.0714 0.397 -0.0714
1708780225.2649 0.401 -0.031 -0.0605 0.403 -0.0605
1708780225.2724 0.407 -0.032 -0.0512 0.409 -0.0512
1708780225.2808 0.414 -0.032 -0.0450 0.415 -0.0450
1708780225.2890 0.419 -0.032 -0.0373 0.421 -0.0373
1708780225.2973 0.426 -0.032 -0.0217 0.427 -0.0217
1708780225.3060 0.432 -0.033 -0.0078 0.434 -0.0078
1708780225.3135 0.439 -0.033 -0.0016 0.440 -0.0016
1708780225.3206 0.445 -0.033 0.0124 0.447 0.0124
1708780225.3281 0.451 -0.032 0.0279 0.453 0.0279
1708780225.3365 0.457 -0.032 0.0481 0.459 0.0481
1708780225.3452 0.464 -0.032 0.0636 0.465 0.0636
1708780225.3562 0.471 -0.031 0.0776 0.473 0.0776
1708780225.3602 0.478 -0.031 0.0947 0.480 0.0947
1708780225.3680 0.484 -0.030 0.1133 0.485 0.1133
1708780225.3764 0.487 -0.030 0.1350 0.489 0.1350
1708780225.3846 0.493 -0.029 0.1552 0.495 0.1552
1708780225.3928 0.500 -0.028 0.1739 0.502 0.1739
1708780225.4003 0.507 -0.026 0.1956 0.509 0.1956
1708780225.4087 0.513 -0.025 0.2189 0.515 0.2189
1708780225.4168 0.519 -0.024 0.2422 0.521 0.2422
1708780225.4241 0.525 -0.022 0.2654 0.527 0.2654
1708780225.4325 0.531 -0.020 0.2810 0.534 0.2810
1708780225.4405 0.537 -0.019 0.2980 0.540 0.2980
1708780225.4488 0.542 -0.017 0.3213 0.546 0.3213
1708780225.4567 0.548 -0.015 0.3446 0.552 0.3446
1708780225.4648 0.554 -0.013 0.3632 0.558 0.3632
1708780225.4721 0.560 -0.010 0.3834 0.564 0.3834
1708780225.4806 0.566 -0.008 0.4082 0.571 0.4082
1708780225.4890 0.571 -0.006 0.4393 0.577 0.4393
1708780225.4965 0.578 -0.002 0.4672 0.584 0.4672
1708780225.5045 0.584 0.001 0.4843 0.591 0.4843
1708780225.5129 0.589 0.003 0.5029 0.596 0.5029
1708780225.5202 0.594 0.006 0.5278 0.602 0.5278
1708780225.5283 0.599 0.010 0.5511 0.609 0.5511
1708780225.5362 0.605 0.013 0.5743 0.615 0.5743
1708780225.5446 0.610 0.017 0.5945 0.622 0.5945
1708780225.5536 0.616 0.020 0.6147 0.628 0.6147
1708780225.5603 0.621 0.024 0.6395 0.634 0.6395
1708780225.5685 0.626 0.028 0.6597 0.641 0.6597
1708780225.5768 0.631 0.032 0.6737 0.647 0.6737
1708780225.5848 0.636 0.036 0.6845 0.653 0.6845
1708780225.5923 0.641 0.040 0.7032 0.660 0.7032
1708780225.6008 0.646 0.044 0.7218 0.667 0.7218
1708780225.6082 0.651 0.048 0.7358 0.673 0.7358
1708780225.6164 0.655 0.053 0.7404 0.680 0.7404
1708780225.6247 0.660 0.057 0.7435 0.686 0.7435
1708780225.6327 0.665 0.062 0.7528 0.692 0.7528
1708780225.6411 0.669 0.066 0.7622 0.699 0.7622
1708780225.6483 0.674 0.070 0.7653 0.705 0.7653
1708780225.6570 0.679 0.075 0.7684 0.712 0.7684
1708780225.6642 0.683 0.079 0.7699 0.717 0.7699
1708780225.6725 0.687 0.083 0.7699 0.723 0.7699
1708780225.6803 0.692 0.087 0.7637 0.730 0.7637
1708780225.6883 0.696 0.092 0.7637 0.736 0.7637
1708780225.6966 0.701 0.096 0.7653 0.743 0.7653
1708780225.7050 0.706 0.101 0.7653 0.749 0.7653
1708780225.7122 0.710 0.105 0.7606 0.755 0.7606
1708780225.7205 0.715 0.110 0.7544 0.762 0.7544
1708780225.7290 0.720 0.114 0.7497 0.768 0.7497
1708780225.7361 0.725 0.119 0.7497 0.775 0.7497
1708780225.7447 0.730 0.123 0.7466 0.782 0.7466
1708780225.7533 0.734 0.127 0.7404 0.787 0.7404
1708780225.7605 0.738 0.131 0.7342 0.794 0.7342
1708780225.7687 0.744 0.136 0.7296 0.801 0.7296
1708780225.7766 0.748 0.140 0.7280 0.807 0.7280
1708780225.7849 0.753 0.144 0.7249 0.813 0.7249
1708780225.7930 0.758 0.148 0.7218 0.819 0.7218
1708780225.8008 0.763 0.153 0.7187 0.827 0.7187
1708780225.8081 0.768 0.157 0.7171 0.833 0.7171
1708780225.8165 0.772 0.161 0.7140 0.839 0.7140
1708780225.8243 0.777 0.165 0.7125 0.845 0.7125
1708780225.8327 0.782 0.169 0.7109 0.851 0.7109
1708780225.8409 0.787 0.174 0.7078 0.858 0.7078
1708780225.8487 0.792 0.178 0.7047 0.865 0.7047
1708780225.8566 0.796 0.182 0.7016 0.871 0.7016
1708780225.8650 0.801 0.186 0.7032 0.876 0.7032
1708780225.8729 0.806 0.190 0.7016 0.883 0.7016
1708780225.8804 0.811 0.195 0.7001 0.890 0.7001
1708780225.8885 0.816 0.199 0.6954 0.897 0.6954
1708780225.8968 0.821 0.202 0.6939 0.902 0.6939
1708780225.9047 0.825 0.206 0.6939 0.908 0.6939
1708780225.9130 0.830 0.210 0.6954 0.915 0.6954
1708780225.9208 0.835 0.215 0.6908 0.922 0.6908
1708780225.9289 0.840 0.219 0.6876 0.928 0.6876
1708780225.9390 0.845 0.223 0.6876 0.934 0.6876
1708780225.9448 0.850 0.227 0.6908 0.941 0.6908
1708780225.9535 0.856 0.231 0.6908 0.948 0.6908
1708780225.9608 0.860 0.235 0.6892 0.954 0.6892
1708780225.9687 0.865 0.239 0.6908 0.960 0.6908
1708780225.9769 0.870 0.243 0.6908 0.966 0.6908
1708780225.9841 0.874 0.247 0.6908 0.972 0.6908
1708780225.9929 0.880 0.251 0.6892 0.979 0.6892
1708780226.0003 0.884 0.255 0.6908 0.985 0.6908
1708780226.0082 0.889 0.259 0.6908 0.991 0.6908
1708780226.0176 0.894 0.263 0.6908 0.997 0.6908
1708780226.0249 0.899 0.267 0.6892 1.004 0.6892
1708780226.0322 0.904 0.271 0.6892 1.011 0.6892
1708780226.0404 0.909 0.275 0.6939 1.017 0.6939
1708780226.0485 0.913 0.279 0.6939 1.022 0.6939
1708780226.0568 0.918 0.283 0.6908 1.028 0.6908
1708780226.0651 0.923 0.287 0.6876 1.036 0.6876
1708780226.0725 0.929 0.292 0.6908 1.043 0.6908
1708780226.0809 0.934 0.296 0.6954 1.049 0.6954
1708780226.0886 0.938 0.299 0.6970 1.054 0.6970
1708780226.0967 0.942 0.303 0.6970 1.060 0.6970
1708780226.1045 0.948 0.307 0.6939 1.067 0.6939
1708780226.1121 0.953 0.312 0.6923 1.074 0.6923
1708780226.1202 0.958 0.316 0.6954 1.080 0.6954
1708780226.1285 0.962 0.319 0.6970 1.085 0.6970
1708780226.1363 0.966 0.323 0.6954 1.092 0.6954
1708780226.1444 0.972 0.328 0.6923 1.099 0.6923
1708780226.1531 0.977 0.332 0.6939 1.105 0.6939
1708780226.1608 0.982 0.336 0.6954 1.112 0.6954
1708780226.1690 0.986 0.340 0.6939 1.118 0.6939
1708780226.1761 0.991 0.344 0.6939 1.124 0.6939
1708780226.1846 0.996 0.348 0.6939 1.131 0.6939
1708780226.1923 1.001 0.352 0.6939 1.136 0.6939
1708780226.2004 1.006 0.356 0.6939 1.143 0.6939
1708780226.2090 1.011 0.360 0.6923 1.150 0.6923
1708780226.2161 1.016 0.365 0.6923 1.156 0.6923
1708780226.2243 1.021 0.368 0.6923 1.163 0.6923
1708780226.2331 1.025 0.372 0.6939 1.168 0.6939
1708780226.2401 1.030 0.376 0.6954 1.175 0.6954
1708780226.2482 1.036 0.381 0.6939 1.182 0.6939
1708780226.2567 1.040 0.384 0.6923 1.187 0.6923
1708780226.2649 1.045 0.388 0.6923 1.193 0.6923
1708780226.2730 1.050 0.393 0.6954 1.201 0.6954
1708780226.2807 1.056 0.397 0.6970 1.208 0.6970
1708780226.2886 1.060 0.401 0.6939 1.214 0.6939
1708780226.2968 1.065 0.405 0.6908 1.220 0.6908
1708780226.3041 1.069 0.409 0.6908 1.226 0.6908
1708780226.3123 1.075 0.413 0.6923 1.233 0.6923
1708780226.3205 1.080 0.417 0.6923 1.239 0.6923
1708780226.3281 1.084 0.421 0.6923 1.245 0.6923
1708780226.3365 1.089 0.425 0.6923 1.252 0.6923
1708780226.3450 1.094 0.429 0.6908 1.258 0.6908
1708780226.3534 1.100 0.434 0.6908 1.265 0.6908
1708780226.3605 1.105 0.438 0.6923 1.272 0.6923
1708780226.3687 1.109 0.442 0.6923 1.277 0.6923
1708780226.3773 1.113 0.445 0.6923 1.283 0.6923
1708780226.3844 1.118 0.449 0.6923 1.289 0.6923
1708780226.3926 1.124 0.454 0.6939 1.296 0.6939
1708780226.4006 1.129 0.458 0.6939 1.303 0.6939
1708780226.4084 1.133 0.462 0.6923 1.308 0.6923
1708780226.4166 1.138 0.466 0.6923 1.315 0.6923
1708780226.4242 1.143 0.470 0.6923 1.322 0.6923
1708780226.4324 1.148 0.474 0.6939 1.328 0.6939
1708780226.4405 1.153 0.478 0.6939 1.334 0.6939
1708780226.4483 1.158 0.482 0.6939 1.340 0.6939
1708780226.4570 1.163 0.486 0.6923 1.347 0.6923
1708780226.4642 1.168 0.491 0.6876 1.354 0.6876
1708780226.4729 1.173 0.495 0.6876 1.361 0.6876
1708780226.4811 1.178 0.499 0.6908 1.366 0.6908
1708780226.4881 1.182 0.502 0.6908 1.372 0.6908
1708780226.4970 1.188 0.507 0.6908 1.379 0.6908
1708780226.5047 1.193 0.511 0.6908 1.386 0.6908
1708780226.5127 1.198 0.515 0.6908 1.392 0.6908
1708780226.5205 1.202 0.519 0.6939 1.398 0.6939
1708780226.5287 1.207 0.523 0.6939 1.405 0.6939
1708780226.5370 1.213 0.527 0.6923 1.411 0.6923
1708780226.5448 1.218 0.532 0.6908 1.418 0.6908
1708780226.5529 1.222 0.535 0.6923 1.424 0.6923
1708780226.5610 1.227 0.539 0.6954 1.430 0.6954
1708780226.5686 1.232 0.543 0.6954 1.437 0.6954
1708780226.5767 1.237 0.548 0.6939 1.443 0.6939
1708780226.5850 1.242 0.552 0.6939 1.450 0.6939
1708780226.5927 1.247 0.556 0.6970 1.456 0.6970
1708780226.6009 1.251 0.560 0.6970 1.462 0.6970
1708780226.6085 1.257 0.564 0.6939 1.469 0.6939
1708780226.6162 1.261 0.568 0.6954 1.475 0.6954
1708780226.6246 1.266 0.572 0.6970 1.481 0.6970
1708780226.6328 1.271 0.576 0.6939 1.487 0.6939
1708780226.6406 1.276 0.580 0.6876 1.494 0.6876
1708780226.6485 1.281 0.584 0.6892 1.500 0.6892
1708780226.6563 1.286 0.588 0.6939 1.507 0.6939
1708780226.6640 1.291 0.593 0.6908 1.514 0.6908
1708780226.6725 1.296 0.596 0.6861 1.520 0.6861
1708780226.6808 1.301 0.600 0.6845 1.526 0.6845
1708780226.6882 1.306 0.605 0.6908 1.532 0.6908
1708780226.6962 1.310 0.609 0.6908 1.539 0.6908
1708780226.7050 1.315 0.613 0.6892 1.545 0.6892
1708780226.7127 1.320 0.617 0.6892 1.551 0.6892
1708780226.7209 1.325 0.621 0.6908 1.558 0.6908
1708780226.7280 1.330 0.625 0.6908 1.564 0.6908
1708780226.7367 1.335 0.629 0.6892 1.570 0.6892
1708780226.7449 1.339 0.632 0.6908 1.576 0.6908
1708780226.7527 1.345 0.637 0.6908 1.583 0.6908
1708780226.7604 1.350 0.641 0.6923 1.590 0.6923
1708780226.7691 1.355 0.645 0.6939 1.596 0.6939
1708780226.7761 1.359 0.648 0.6939 1.601 0.6939
1708780226.7848 1.364 0.652 0.6923 1.608 0.6923
1708780226.7930 1.369 0.657 0.6939 1.614 0.6939
1708780226.8001 1.374 0.661 0.6939 1.621 0.6939
1708780226.8087 1.379 0.665 0.6970 1.628 0.6970
1708780226.8169 1.383 0.669 0.6970 1.633 0.6970
1708780226.8251 1.388 0.673 0.6970 1.640 0.6970
1708780226.8327 1.394 0.678 0.6954 1.647 0.6954
1708780226.8408 1.399 0.682 0.6923 1.654 0.6923
1708780226.8490 1.403 0.686 0.6954 1.659 0.6954
1708780226.8563 1.408 0.689 0.6985 1.665 0.6985
1708780226.8644 1.413 0.694 0.6970 1.672 0.6970
1708780226.8724 1.418 0.698 0.6939 1.679 0.6939
1708780226.8801 1.423 0.702 0.6939 1.685 0.6939
1708780226.8882 1.428 0.706 0.6939 1.691 0.6939
1708780226.8964 1.433 0.710 0.6939 1.698 0.6939
1708780226.9047 1.438 0.714 0.6939 1.704 0.6939
1708780226.9128 1.443 0.719 0.6923 1.711 0.6923
1708780226.9208 1.448 0.723 0.6923 1.717 0.6923
1708780226.9285 1.453 0.727 0.6970 1.724 0.6970
1708780226.9367 1.458 0.731 0.6970 1.730 0.6970
1708780226.9449 1.462 0.735 0.6939 1.736 0.6939
1708780226.9533 1.468 0.739 0.6923 1.743 0.6923
1708780226.9603 1.472 0.743 0.6939 1.749 0.6939
1708780226.9687 1.477 0.747 0.6954 1.756 0.6954
1708780226.9764 1.482 0.751 0.6939 1.762 0.6939
1708780226.9846 1.487 0.755 0.6908 1.768 0.6908
1708780226.9927 1.492 0.759 0.6923 1.775 0.6923
1708780227.0005 1.497 0.764 0.6954 1.782 0.6954
1708780227.0081 1.502 0.768 0.6954 1.788 0.6954
1708780227.0162 1.507 0.772 0.6939 1.794 0.6939
1708780227.0240 1.511 0.775 0.6939 1.799 0.6939
1708780227.0322 1.516 0.780 0.6939 1.806 0.6939
1708780227.0404 1.521 0.784 0.6939 1.813 0.6939
1708780227.0482 1.527 0.788 0.6954 1.820 0.6954
1708780227.0569 1.531 0.792 0.6970 1.826 0.6970
1708780227.0641 1.536 0.796 0.6892 1.832 0.6892
1708780227.0730 1.541 0.800 0.6892 1.838 0.6892
1708780227.0802 1.546 0.804 0.6939 1.845 0.6939
1708780227.0883 1.551 0.808 0.6970 1.851 0.6970
1708780227.0970 1.555 0.812 0.6954 1.857 0.6954
1708780227.1048 1.560 0.816 0.6908 1.864 0.6908
1708780227.1130 1.566 0.821 0.6892 1.871 0.6892
1708780227.1208 1.571 0.825 0.6939 1.877 0.6939
1708780227.1280 1.575 0.829 0.6970 1.883 0.6970
1708780227.1363 1.580 0.833 0.6939 1.889 0.6939
1708780227.1454 1.585 0.836 0.6876 1.895 0.6876
1708780227.1534 1.590 0.841 0.6876 1.902 0.6876
1708780227.1606 1.596 0.846 0.6923 1.910 0.6923
1708780227.1684 1.601 0.850 0.6970 1.916 0.6970
1708780227.1766 1.604 0.853 0.6970 1.921 0.6970
1708780227.1844 1.609 0.856 0.6939 1.927 0.6939
1708780227.1931 1.614 0.861 0.6923 1.934 0.6923
1708780227.2005 1.620 0.865 0.6923 1.941 0.6923
1708780227.2087 1.625 0.870 0.6939 1.947 0.6939
1708780227.2168 1.629 0.873 0.6954 1.953 0.6954
1708780227.2249 1.634 0.877 0.6939 1.959 0.6939
1708780227.2331 1.639 0.882 0.6908 1.966 0.6908
1708780227.2408 1.645 0.886 0.6939 1.973 0.6939
1708780227.2489 1.649 0.890 0.6954 1.980 0.6954
1708780227.2568 1.654 0.894 0.6954 1.985 0.6954
1708780227.2646 1.658 0.898 0.6939 1.991 0.6939
1708780227.2727 1.664 0.902 0.6923 1.998 0.6923
1708780227.2808 1.669 0.906 0.6939 2.005 0.6939
1708780227.2885 1.673 0.910 0.6939 2.011 0.6939
1708780227.2975 1.678 0.914 0.6939 2.017 0.6939
1708780227.3043 1.683 0.919 0.6923 2.024 0.6923
1708780227.3131 1.688 0.923 0.6908 2.030 0.6908
1708780227.3201 1.693 0.926 0.6923 2.036 0.6923
1708780227.3282 1.698 0.930 0.6939 2.042 0.6939
1708780227.3361 1.703 0.935 0.6908 2.049 0.6908
1708780227.3444 1.708 0.939 0.6908 2.055 0.6908
1708780227.3534 1.712 0.942 0.6954 2.061 0.6954
1708780227.3602 1.717 0.947 0.6970 2.068 0.6970
1708780227.3698 1.722 0.951 0.6970 2.074 0.6970
1708780227.3761 1.727 0.955 0.6939 2.080 0.6939
1708780227.3850 1.732 0.959 0.6923 2.086 0.6923
1708780227.3921 1.736 0.962 0.6939 2.092 0.6939
1708780227.4003 1.741 0.966 0.6970 2.098 0.6970
1708780227.4087 1.746 0.970 0.6954 2.105 0.6954
1708780227.4170 1.750 0.974 0.6939 2.111 0.6939
1708780227.4298 1.754 0.978 0.6923 2.116 0.6923
1708780227.4323 1.759 0.982 0.6908 2.122 0.6908
1708780227.4407 1.764 0.986 0.6892 2.129 0.6892
1708780227.4491 1.768 0.989 0.6861 2.133 0.6861
1708780227.4575 1.772 0.992 0.6876 2.139 0.6876
1708780227.4647 1.776 0.995 0.6876 2.144 0.6876
1708780227.4729 1.781 0.999 0.6861 2.150 0.6861
1708780227.4808 1.785 1.003 0.6861 2.155 0.6861
1708780227.4890 1.789 1.006 0.6861 2.160 0.6861
1708780227.4962 1.792 1.009 0.6830 2.165 0.6830
1708780227.5049 1.796 1.012 0.6814 2.170 0.6814
1708780227.5121 1.800 1.015 0.6799 2.175 0.6799
1708780227.5203 1.805 1.019 0.6830 2.181 0.6830
1708780227.5465 1.820 1.032 0.6923 2.201 0.6923
1708780227.5540 1.825 1.036 0.6939 2.208 0.6939
1708780227.5607 1.829 1.039 0.6923 2.213 0.6923
1708780227.5706 1.833 1.042 0.6923 2.218 0.6923
1708780227.5772 1.838 1.046 0.6954 2.224 0.6954
1708780227.5852 1.843 1.050 0.7001 2.230 0.7001
1708780227.5940 1.847 1.054 0.7032 2.237 0.7032
1708780227.6016 1.852 1.059 0.7109 2.243 0.7109
1708780227.6090 1.858 1.063 0.7140 2.250 0.7140
1708780227.6190 1.862 1.067 0.7156 2.256 0.7156
1708780227.6261 1.867 1.071 0.7140 2.262 0.7140
1708780227.6329 1.872 1.075 0.7171 2.268 0.7171
1708780227.6428 1.877 1.080 0.7171 2.275 0.7171
1708780227.6493 1.881 1.084 0.7125 2.281 0.7125
1708780227.6568 1.887 1.088 0.7063 2.288 0.7063
1708780227.6666 1.891 1.092 0.7047 2.294 0.7047
1708780227.6731 1.896 1.096 0.7063 2.301 0.7063
1708780227.6809 1.901 1.101 0.7063 2.308 0.7063
1708780227.6904 1.906 1.105 0.7047 2.314 0.7047
1708780227.6969 1.911 1.109 0.7032 2.320 0.7032
1708780227.7053 1.916 1.113 0.7001 2.327 0.7001
1708780227.7141 1.921 1.117 0.6985 2.333 0.6985
1708780227.7216 1.926 1.121 0.6985 2.339 0.6985
1708780227.7292 1.931 1.125 0.6985 2.346 0.6985
1708780227.7380 1.936 1.130 0.6954 2.353 0.6954
1708780227.7456 1.940 1.134 0.6939 2.359 0.6939
1708780227.7532 1.945 1.138 0.6954 2.365 0.6954
1708780227.7621 1.950 1.142 0.6954 2.372 0.6954
1708780227.7686 1.955 1.146 0.6939 2.378 0.6939
1708780227.7773 1.960 1.150 0.6923 2.384 0.6923
1708780227.7861 1.965 1.154 0.6892 2.390 0.6892
1708780227.7939 1.970 1.158 0.6892 2.397 0.6892
1708780227.8014 1.976 1.163 0.6908 2.404 0.6908
1708780227.8110 1.981 1.167 0.6923 2.411 0.6923
1708780227.8173 1.985 1.171 0.6923 2.417 0.6923
1708780227.8260 1.990 1.175 0.6923 2.423 0.6923
1708780227.8349 1.995 1.178 0.6923 2.429 0.6923
1708780227.8414 1.999 1.182 0.6908 2.435 0.6908
1708780227.8491 2.005 1.187 0.6923 2.442 0.6923
1708780227.8586 2.009 1.191 0.6923 2.448 0.6923
1708780227.8660 2.014 1.194 0.6908 2.454 0.6908
1708780227.8737 2.019 1.199 0.6908 2.461 0.6908
1708780227.8827 2.024 1.203 0.6939 2.468 0.6939
1708780227.8892 2.029 1.207 0.6954 2.474 0.6954
1708780227.8980 2.034 1.211 0.6939 2.480 0.6939
1708780227.9065 2.038 1.215 0.6892 2.486 0.6892
1708780227.9139 2.043 1.219 0.6892 2.492 0.6892
1708780227.9217 2.048 1.223 0.6892 2.499 0.6892
1708780227.9308 2.053 1.227 0.6923 2.505 0.6923
1708780227.9375 2.058 1.231 0.6954 2.512 0.6954
1708780227.9453 2.063 1.235 0.6954 2.518 0.6954
1708780227.9547 2.067 1.239 0.6908 2.524 0.6908
1708780227.9612 2.072 1.243 0.6876 2.530 0.6876
