% Pose without folding and reset (log_20240224_141949.566/log_pose_abs.txt)
% 1 	Time (sec)
% 2,3 	Position x,y (m)
% 4 	heading (rad)
% 5 	Driven distance (m) - signed
% 6 	Turned angle (rad) - signed
1708780789.6817 0.000 0.000 0.0000 0.000 0.0000
1708780789.6894 0.000 0.000 0.0000 0.000 0.0000
1708780789.6965 0.000 0.000 0.0000 0.000 0.0000
1708780789.7051 0.000 0.000 0.0000 0.000 0.0000
1708780789.7131 0.000 0.000 0.0031 0.000 0.0031
1708780789.7209 0.002 0.000 0.0124 0.002 0.0124
1708780789.7302 0.005 0.000 0.0093 0.005 0.0093
1708780789.7370 0.007 0.000 0.0062 0.007 0.0062
1708780789.7459 0.009 0.000 0.0078 0.009 0.0078
1708780789.7523 0.012 0.000 0.0124 0.012 0.0124
1708780789.7605 0.016 0.000 0.0109 0.016 0.0109
1708780789.7687 0.021 0.000 0.0109 0.021 0.0109
1708780789.7764 0.025 0.000 0.0109 0.025 0.0109
1708780789.7846 0.030 0.000 0.0109 0.030 0.0109
1708780789.7932 0.036 0.000 0.0109 0.036 0.0109
1708780789.8010 0.042 0.000 0.0093 0.042 0.0093
1708780789.8093 0.049 0.000 0.0062 0.049 0.0062
1708780789.8165 0.055 0.001 0.0078 0.055 0.0078
1708780789.8243 0.061 0.001 0.0093 0.061 0.0093
1708780789.8324 0.068 0.001 0.0109 0.068 0.0109
1708780789.8403 0.074 0.001 0.0109 0.074 0.0109
1708780789.8493 0.081 0.001 0.0109 0.081 0.0109
1708780789.8565 0.087 0.001 0.0109 0.087 0.0109
1708780789.8653 0.094 0.001 0.0124 0.094 0.0124
1708780789.8801 0.101 0.001 0.0140 0.101 0.0140
1708780789.8827 0.107 0.001 0.0140 0.107 0.0140
1708780789.8895 0.115 0.001 0.0155 0.115 0.0155
1708780789.8972 0.120 0.001 0.0140 0.120 0.0140
1708780789.9048 0.124 0.001 0.0155 0.124 0.0155
1708780789.9131 0.129 0.001 0.0202 0.129 0.0202
1708780789.9207 0.135 0.002 0.0233 0.135 0.0233
1708780789.9290 0.142 0.002 0.0202 0.142 0.0202
1708780789.9368 0.147 0.002 0.0186 0.147 0.0186
1708780789.9447 0.152 0.002 0.0186 0.152 0.0186
1708780789.9529 0.158 0.002 0.0171 0.158 0.0171
1708780789.9611 0.164 0.002 0.0155 0.164 0.0155
1708780789.9688 0.171 0.002 0.0171 0.171 0.0171
1708780789.9771 0.178 0.002 0.0171 0.178 0.0171
1708780789.9853 0.184 0.002 0.0217 0.184 0.0217
1708780789.9927 0.191 0.003 0.0264 0.191 0.0264
1708780790.0010 0.197 0.003 0.0295 0.197 0.0295
1708780790.0088 0.204 0.003 0.0279 0.204 0.0279
1708780790.0163 0.211 0.003 0.0279 0.211 0.0279
1708780790.0246 0.217 0.003 0.0295 0.217 0.0295
1708780790.0328 0.223 0.004 0.0357 0.223 0.0357
1708780790.0403 0.229 0.004 0.0373 0.229 0.0373
1708780790.0486 0.236 0.004 0.0357 0.236 0.0357
1708780790.0566 0.242 0.004 0.0373 0.243 0.0373
1708780790.0645 0.249 0.005 0.0388 0.249 0.0388
1708780790.0727 0.255 0.005 0.0419 0.256 0.0419
1708780790.0810 0.262 0.005 0.0450 0.262 0.0450
1708780790.0884 0.268 0.005 0.0419 0.268 0.0419
1708780790.0964 0.274 0.006 0.0481 0.274 0.0481
1708780790.1060 0.280 0.006 0.0559 0.280 0.0559
1708780790.1130 0.286 0.006 0.0605 0.286 0.0605
1708780790.1217 0.293 0.007 0.0605 0.293 0.0605
1708780790.1288 0.300 0.007 0.0605 0.300 0.0605
1708780790.1376 0.306 0.007 0.0652 0.306 0.0652
1708780790.1447 0.312 0.008 0.0714 0.312 0.0714
1708780790.1527 0.318 0.008 0.0745 0.318 0.0745
1708780790.1604 0.325 0.009 0.0745 0.325 0.0745
1708780790.1686 0.331 0.009 0.0745 0.331 0.0745
1708780790.1767 0.336 0.010 0.0776 0.336 0.0776
1708780790.1845 0.342 0.010 0.0792 0.343 0.0792
1708780790.1933 0.349 0.011 0.0807 0.349 0.0807
1708780790.2003 0.356 0.011 0.0823 0.356 0.0823
1708780790.2091 0.362 0.012 0.0869 0.362 0.0869
1708780790.2165 0.368 0.012 0.0900 0.369 0.0900
1708780790.2248 0.374 0.013 0.0900 0.375 0.0900
1708780790.2328 0.381 0.013 0.0900 0.381 0.0900
1708780790.2404 0.387 0.014 0.0900 0.388 0.0900
1708780790.2490 0.394 0.015 0.0916 0.394 0.0916
1708780790.2571 0.400 0.015 0.0947 0.400 0.0947
1708780790.2670 0.406 0.016 0.0962 0.407 0.0962
1708780790.2725 0.413 0.017 0.0978 0.414 0.0978
1708780790.2817 0.420 0.017 0.0978 0.420 0.0978
1708780790.2885 0.425 0.018 0.0978 0.425 0.0978
1708780790.2969 0.431 0.018 0.0993 0.431 0.0993
1708780790.3049 0.437 0.019 0.1024 0.438 0.1024
1708780790.3132 0.444 0.020 0.1024 0.445 0.1024
1708780790.3204 0.451 0.020 0.0993 0.452 0.0993
1708780790.3293 0.457 0.021 0.1009 0.457 0.1009
1708780790.3374 0.463 0.021 0.1009 0.463 0.1009
1708780790.3447 0.469 0.022 0.1009 0.470 0.1009
1708780790.3526 0.477 0.023 0.0993 0.478 0.0993
1708780790.3635 0.483 0.024 0.0993 0.484 0.0993
1708780790.3690 0.488 0.024 0.1009 0.489 0.1009
1708780790.3766 0.494 0.025 0.1040 0.495 0.1040
1708780790.3848 0.500 0.025 0.1024 0.501 0.1024
1708780790.3926 0.505 0.026 0.0978 0.506 0.0978
1708780790.4011 0.512 0.026 0.0962 0.513 0.0962
1708780790.4093 0.518 0.027 0.0993 0.519 0.0993
1708780790.4164 0.525 0.028 0.1024 0.527 0.1024
1708780790.4252 0.532 0.028 0.1009 0.533 0.1009
1708780790.4324 0.537 0.029 0.0978 0.538 0.0978
1708780790.4413 0.543 0.030 0.0931 0.544 0.0931
1708780790.4490 0.549 0.030 0.0900 0.550 0.0900
1708780790.4573 0.556 0.031 0.0916 0.557 0.0916
1708780790.4653 0.563 0.031 0.0900 0.564 0.0900
1708780790.4730 0.569 0.032 0.0838 0.570 0.0838
1708780790.4812 0.575 0.032 0.0776 0.577 0.0776
1708780790.4891 0.582 0.033 0.0761 0.583 0.0761
1708780790.4970 0.588 0.033 0.0745 0.590 0.0745
1708780790.5044 0.594 0.034 0.0699 0.596 0.0699
1708780790.5125 0.600 0.034 0.0636 0.602 0.0636
1708780790.5203 0.607 0.035 0.0590 0.608 0.0590
1708780790.5286 0.614 0.035 0.0559 0.615 0.0559
1708780790.5375 0.620 0.035 0.0512 0.621 0.0512
1708780790.5453 0.626 0.036 0.0466 0.628 0.0466
1708780790.5524 0.633 0.036 0.0419 0.635 0.0419
1708780790.5606 0.639 0.036 0.0373 0.641 0.0373
1708780790.5685 0.645 0.036 0.0326 0.646 0.0326
1708780790.5784 0.651 0.037 0.0279 0.653 0.0279
1708780790.5845 0.658 0.037 0.0233 0.660 0.0233
1708780790.5932 0.665 0.037 0.0171 0.666 0.0171
1708780790.6012 0.670 0.037 0.0155 0.671 0.0155
1708780790.6084 0.676 0.037 0.0078 0.678 0.0078
1708780790.6173 0.683 0.037 0.0031 0.684 0.0031
1708780790.6251 0.689 0.037 0.0000 0.691 0.0000
1708780790.6323 0.696 0.037 -0.0031 0.697 -0.0031
1708780790.6406 0.702 0.037 -0.0093 0.704 -0.0093
1708780790.6488 0.708 0.037 -0.0109 0.710 -0.0109
1708780790.6571 0.714 0.037 -0.0155 0.716 -0.0155
1708780790.6643 0.721 0.037 -0.0186 0.723 -0.0186
1708780790.6729 0.728 0.037 -0.0217 0.729 -0.0217
1708780790.6812 0.734 0.037 -0.0233 0.735 -0.0233
1708780790.6884 0.740 0.036 -0.0279 0.741 -0.0279
1708780790.6966 0.747 0.036 -0.0310 0.748 -0.0310
1708780790.7047 0.753 0.036 -0.0326 0.754 -0.0326
1708780790.7125 0.759 0.036 -0.0357 0.760 -0.0357
1708780790.7208 0.765 0.036 -0.0388 0.767 -0.0388
1708780790.7291 0.772 0.035 -0.0419 0.773 -0.0419
1708780790.7377 0.779 0.035 -0.0435 0.780 -0.0435
1708780790.7449 0.785 0.035 -0.0450 0.786 -0.0450
1708780790.7532 0.791 0.034 -0.0466 0.792 -0.0466
1708780790.7610 0.797 0.034 -0.0512 0.799 -0.0512
1708780790.7692 0.804 0.034 -0.0512 0.806 -0.0512
1708780790.7772 0.810 0.033 -0.0512 0.812 -0.0512
1708780790.7850 0.816 0.033 -0.0543 0.818 -0.0543
1708780790.7928 0.823 0.033 -0.0574 0.824 -0.0574
1708780790.8012 0.829 0.032 -0.0559 0.831 -0.0559
1708780790.8091 0.835 0.032 -0.0512 0.837 -0.0512
1708780790.8173 0.842 0.032 -0.0497 0.843 -0.0497
1708780790.8253 0.848 0.031 -0.0559 0.850 -0.0559
1708780790.8330 0.855 0.031 -0.0559 0.856 -0.0559
1708780790.8408 0.861 0.031 -0.0528 0.863 -0.0528
1708780790.8491 0.867 0.030 -0.0497 0.869 -0.0497
1708780790.8569 0.874 0.030 -0.0528 0.875 -0.0528
1708780790.8739 0.880 0.030 -0.0543 0.882 -0.0543
1708780790.8811 0.887 0.029 -0.0497 0.889 -0.0497
1708780790.8842 0.894 0.029 -0.0481 0.895 -0.0481
1708780790.8893 0.901 0.029 -0.0497 0.903 -0.0497
1708780790.8972 0.906 0.028 -0.0543 0.908 -0.0543
1708780790.9052 0.910 0.028 -0.0512 0.912 -0.0512
1708780790.9124 0.915 0.028 -0.0388 0.917 -0.0388
1708780790.9203 0.921 0.028 -0.0310 0.923 -0.0310
1708780790.9293 0.927 0.028 -0.0295 0.928 -0.0295
1708780790.9372 0.932 0.027 -0.0295 0.934 -0.0295
1708780790.9444 0.939 0.027 -0.0279 0.940 -0.0279
1708780790.9523 0.945 0.027 -0.0248 0.947 -0.0248
1708780790.9604 0.951 0.027 -0.0217 0.952 -0.0217
1708780790.9686 0.956 0.027 -0.0171 0.958 -0.0171
1708780790.9765 0.962 0.027 -0.0140 0.964 -0.0140
1708780790.9847 0.968 0.027 -0.0109 0.970 -0.0109
1708780790.9926 0.974 0.027 -0.0078 0.976 -0.0078
1708780791.0013 0.980 0.027 -0.0016 0.982 -0.0016
1708780791.0084 0.986 0.027 0.0016 0.987 0.0016
1708780791.0167 0.992 0.027 0.0062 0.994 0.0062
1708780791.0245 0.998 0.027 0.0109 0.999 0.0109
1708780791.0328 1.003 0.027 0.0140 1.005 0.0140
1708780791.0407 1.010 0.027 0.0155 1.012 0.0155
1708780791.0484 1.016 0.027 0.0171 1.018 0.0171
1708780791.0567 1.022 0.027 0.0248 1.024 0.0248
1708780791.0650 1.028 0.027 0.0357 1.030 0.0357
1708780791.0729 1.035 0.028 0.0435 1.037 0.0435
1708780791.0803 1.042 0.028 0.0466 1.043 0.0466
1708780791.0892 1.048 0.028 0.0497 1.050 0.0497
1708780791.0972 1.053 0.028 0.0559 1.055 0.0559
1708780791.1048 1.060 0.029 0.0636 1.061 0.0636
1708780791.1125 1.066 0.029 0.0683 1.068 0.0683
1708780791.1204 1.072 0.030 0.0730 1.074 0.0730
1708780791.1284 1.078 0.030 0.0823 1.080 0.0823
1708780791.1372 1.085 0.031 0.0916 1.087 0.0916
1708780791.1450 1.092 0.031 0.0978 1.093 0.0978
1708780791.1533 1.098 0.032 0.1024 1.100 0.1024
1708780791.1605 1.105 0.033 0.1071 1.107 0.1071
1708780791.1683 1.110 0.033 0.1149 1.112 0.1149
1708780791.1770 1.116 0.034 0.1211 1.118 0.1211
1708780791.1848 1.122 0.035 0.1273 1.124 0.1273
1708780791.1927 1.130 0.036 0.1304 1.132 0.1304
1708780791.2010 1.136 0.037 0.1350 1.138 0.1350
1708780791.2083 1.142 0.037 0.1413 1.144 0.1413
1708780791.2172 1.148 0.038 0.1490 1.150 0.1490
1708780791.2244 1.155 0.039 0.1506 1.157 0.1506
1708780791.2325 1.162 0.040 0.1537 1.164 0.1537
1708780791.2410 1.168 0.041 0.1583 1.170 0.1583
1708780791.2493 1.173 0.042 0.1630 1.176 0.1630
1708780791.2566 1.180 0.043 0.1676 1.183 0.1676
1708780791.2644 1.186 0.044 0.1692 1.189 0.1692
1708780791.2725 1.192 0.045 0.1707 1.195 0.1707
1708780791.2808 1.198 0.046 0.1754 1.201 0.1754
1708780791.2893 1.205 0.048 0.1770 1.208 0.1770
1708780791.2965 1.211 0.049 0.1770 1.215 0.1770
1708780791.3048 1.217 0.050 0.1770 1.221 0.1770
1708780791.3126 1.223 0.051 0.1816 1.226 0.1816
1708780791.3208 1.229 0.052 0.1847 1.233 0.1847
1708780791.3289 1.236 0.053 0.1832 1.240 0.1832
1708780791.3378 1.242 0.054 0.1785 1.246 0.1785
1708780791.3452 1.249 0.056 0.1801 1.252 0.1801
1708780791.3525 1.255 0.057 0.1816 1.259 0.1816
1708780791.3612 1.261 0.058 0.1816 1.265 0.1816
1708780791.3684 1.267 0.059 0.1801 1.271 0.1801
1708780791.3766 1.273 0.060 0.1832 1.278 0.1832
1708780791.3845 1.280 0.061 0.1816 1.284 0.1816
1708780791.3923 1.286 0.062 0.1785 1.290 0.1785
1708780791.4008 1.292 0.064 0.1770 1.297 0.1770
1708780791.4085 1.298 0.065 0.1754 1.303 0.1754
1708780791.4168 1.305 0.066 0.1707 1.310 0.1707
1708780791.4251 1.311 0.067 0.1661 1.316 0.1661
1708780791.4329 1.318 0.068 0.1661 1.323 0.1661
1708780791.4407 1.324 0.069 0.1645 1.329 0.1645
1708780791.4490 1.331 0.070 0.1614 1.336 0.1614
1708780791.4566 1.337 0.071 0.1552 1.342 0.1552
1708780791.4650 1.343 0.072 0.1490 1.348 0.1490
1708780791.4736 1.349 0.073 0.1444 1.355 0.1444
1708780791.4804 1.356 0.074 0.1413 1.361 0.1413
1708780791.4883 1.363 0.075 0.1350 1.368 0.1350
1708780791.4965 1.368 0.076 0.1304 1.373 0.1304
1708780791.5044 1.374 0.076 0.1257 1.379 0.1257
1708780791.5128 1.381 0.077 0.1195 1.386 0.1195
1708780791.5212 1.388 0.078 0.1102 1.394 0.1102
1708780791.5290 1.394 0.079 0.1040 1.400 0.1040
1708780791.5369 1.400 0.079 0.1009 1.406 0.1009
1708780791.5452 1.406 0.080 0.0978 1.412 0.0978
1708780791.5531 1.413 0.081 0.0900 1.419 0.0900
1708780791.5613 1.420 0.081 0.0838 1.425 0.0838
1708780791.5685 1.426 0.082 0.0823 1.431 0.0823
1708780791.5769 1.432 0.082 0.0761 1.437 0.0761
1708780791.5853 1.438 0.083 0.0652 1.444 0.0652
1708780791.5931 1.445 0.083 0.0590 1.451 0.0590
1708780791.6010 1.452 0.083 0.0574 1.458 0.0574
1708780791.6093 1.458 0.084 0.0528 1.464 0.0528
1708780791.6165 1.464 0.084 0.0435 1.470 0.0435
1708780791.6251 1.471 0.084 0.0341 1.476 0.0341
1708780791.6332 1.477 0.084 0.0310 1.482 0.0310
1708780791.6410 1.483 0.085 0.0264 1.489 0.0264
1708780791.6488 1.490 0.085 0.0202 1.495 0.0202
1708780791.6571 1.496 0.085 0.0155 1.502 0.0155
1708780791.6643 1.502 0.085 0.0124 1.508 0.0124
1708780791.6732 1.508 0.085 0.0047 1.514 0.0047
1708780791.6813 1.515 0.085 0.0016 1.521 0.0016
1708780791.6892 1.522 0.085 -0.0078 1.528 -0.0078
1708780791.6972 1.529 0.085 -0.0124 1.534 -0.0124
1708780791.7044 1.534 0.085 -0.0155 1.540 -0.0155
1708780791.7127 1.540 0.085 -0.0171 1.546 -0.0171
1708780791.7216 1.547 0.085 -0.0171 1.552 -0.0171
1708780791.7289 1.554 0.085 -0.0217 1.559 -0.0217
1708780791.7369 1.561 0.084 -0.0295 1.567 -0.0295
1708780791.7447 1.567 0.084 -0.0357 1.573 -0.0357
1708780791.7530 1.572 0.084 -0.0357 1.578 -0.0357
1708780791.7603 1.578 0.084 -0.0341 1.584 -0.0341
1708780791.7691 1.585 0.084 -0.0373 1.591 -0.0373
1708780791.7773 1.592 0.083 -0.0435 1.597 -0.0435
1708780791.7845 1.598 0.083 -0.0450 1.604 -0.0450
1708780791.7931 1.604 0.083 -0.0419 1.610 -0.0419
1708780791.8013 1.610 0.082 -0.0419 1.616 -0.0419
1708780791.8085 1.616 0.082 -0.0435 1.622 -0.0435
1708780791.8173 1.623 0.082 -0.0435 1.629 -0.0435
1708780791.8244 1.629 0.082 -0.0435 1.635 -0.0435
1708780791.8328 1.636 0.081 -0.0419 1.642 -0.0419
1708780791.8413 1.642 0.081 -0.0419 1.648 -0.0419
1708780791.8486 1.649 0.081 -0.0404 1.654 -0.0404
1708780791.8567 1.655 0.081 -0.0388 1.661 -0.0388
1708780791.8646 1.661 0.080 -0.0373 1.667 -0.0373
1708780791.8729 1.667 0.080 -0.0357 1.673 -0.0357
1708780791.8812 1.674 0.080 -0.0357 1.680 -0.0357
1708780791.8887 1.681 0.080 -0.0341 1.686 -0.0341
1708780791.8972 1.687 0.079 -0.0295 1.693 -0.0295
1708780791.9044 1.693 0.079 -0.0248 1.699 -0.0248
1708780791.9124 1.699 0.079 -0.0202 1.705 -0.0202
1708780791.9207 1.706 0.079 -0.0202 1.712 -0.0202
1708780791.9292 1.712 0.079 -0.0202 1.718 -0.0202
1708780791.9378 1.718 0.079 -0.0140 1.724 -0.0140
1708780791.9453 1.725 0.079 -0.0062 1.731 -0.0062
1708780791.9547 1.731 0.079 -0.0031 1.737 -0.0031
1708780791.9609 1.738 0.079 -0.0016 1.744 -0.0016
1708780791.9693 1.744 0.079 0.0031 1.750 0.0031
1708780791.9765 1.749 0.079 0.0078 1.755 0.0078
1708780791.9854 1.756 0.079 0.0140 1.762 0.0140
1708780791.9923 1.763 0.079 0.0186 1.769 0.0186
1708780792.0008 1.770 0.079 0.0217 1.775 0.0217
1708780792.0088 1.775 0.079 0.0248 1.781 0.0248
1708780792.0170 1.780 0.079 0.0326 1.786 0.0326
1708780792.0249 1.788 0.080 0.0373 1.794 0.0373
1708780792.0328 1.795 0.080 0.0404 1.801 0.0404
1708780792.0404 1.801 0.080 0.0450 1.807 0.0450
1708780792.0486 1.807 0.080 0.0497 1.813 0.0497
1708780792.0563 1.813 0.081 0.0590 1.819 0.0590
1708780792.0647 1.819 0.081 0.0652 1.825 0.0652
1708780792.0730 1.826 0.082 0.0683 1.832 0.0683
1708780792.0817 1.833 0.082 0.0745 1.839 0.0745
1708780792.0884 1.839 0.083 0.0807 1.845 0.0807
1708780792.0966 1.846 0.083 0.0869 1.852 0.0869
1708780792.1045 1.851 0.084 0.0931 1.857 0.0931
1708780792.1127 1.858 0.084 0.0962 1.864 0.0962
1708780792.1210 1.865 0.085 0.1024 1.871 0.1024
1708780792.1292 1.872 0.086 0.1102 1.878 0.1102
1708780792.1385 1.878 0.086 0.1164 1.884 0.1164
1708780792.1446 1.884 0.087 0.1211 1.890 0.1211
1708780792.1523 1.890 0.088 0.1226 1.896 0.1226
1708780792.1605 1.896 0.089 0.1257 1.902 0.1257
1708780792.1687 1.902 0.089 0.1350 1.908 0.1350
1708780792.1865 1.918 0.092 0.1490 1.924 0.1490
1708780792.1949 1.924 0.093 0.1521 1.931 0.1521
1708780792.2026 1.930 0.094 0.1552 1.937 0.1552
1708780792.2114 1.936 0.094 0.1568 1.943 0.1568
1708780792.2202 1.943 0.096 0.1599 1.950 0.1599
1708780792.2281 1.950 0.097 0.1630 1.957 0.1630
1708780792.2355 1.957 0.098 0.1661 1.964 0.1661
1708780792.2440 1.963 0.099 0.1707 1.970 0.1707
1708780792.2518 1.968 0.100 0.1707 1.975 0.1707
1708780792.2594 1.974 0.101 0.1676 1.981 0.1676
1708780792.2672 1.981 0.102 0.1692 1.988 0.1692
1708780792.2760 1.988 0.103 0.1770 1.995 0.1770
1708780792.2835 1.993 0.104 0.1801 2.001 0.1801
1708780792.2918 2.000 0.105 0.1754 2.007 0.1754
1708780792.2995 2.006 0.106 0.1692 2.014 0.1692
1708780792.3081 2.013 0.107 0.1723 2.020 0.1723
1708780792.3159 2.018 0.109 0.1770 2.026 0.1770
1708780792.3235 2.024 0.110 0.1754 2.033 0.1754
1708780792.3321 2.031 0.111 0.1692 2.039 0.1692
1708780792.3394 2.037 0.112 0.1661 2.045 0.1661
1708780792.3482 2.043 0.113 0.1661 2.052 0.1661
1708780792.3557 2.050 0.114 0.1676 2.058 0.1676
1708780792.3635 2.056 0.115 0.1630 2.065 0.1630
1708780792.3714 2.062 0.116 0.1568 2.071 0.1568
1708780792.3802 2.069 0.117 0.1521 2.077 0.1521
1708780792.3878 2.075 0.118 0.1537 2.083 0.1537
1708780792.3955 2.082 0.119 0.1521 2.090 0.1521
1708780792.4042 2.088 0.120 0.1459 2.096 0.1459
1708780792.4119 2.093 0.121 0.1428 2.102 0.1428
1708780792.4195 2.100 0.122 0.1397 2.109 0.1397
1708780792.4282 2.107 0.123 0.1366 2.116 0.1366
1708780792.4360 2.112 0.123 0.1335 2.121 0.1335
1708780792.4435 2.118 0.124 0.1288 2.128 0.1288
1708780792.4523 2.125 0.125 0.1211 2.134 0.1211
1708780792.4597 2.132 0.126 0.1102 2.141 0.1102
1708780792.4672 2.138 0.126 0.0978 2.148 0.0978
1708780792.4759 2.144 0.127 0.0916 2.154 0.0916
1708780792.4838 2.150 0.128 0.0885 2.160 0.0885
1708780792.4922 2.157 0.128 0.0823 2.166 0.0823
1708780792.4998 2.163 0.129 0.0699 2.173 0.0699
1708780792.5073 2.170 0.129 0.0590 2.180 0.0590
1708780792.5156 2.176 0.129 0.0466 2.186 0.0466
1708780792.5236 2.182 0.130 0.0404 2.192 0.0404
1708780792.5314 2.189 0.130 0.0326 2.198 0.0326
1708780792.5398 2.196 0.130 0.0233 2.205 0.0233
1708780792.5474 2.202 0.130 0.0124 2.211 0.0124
1708780792.5562 2.208 0.130 0.0000 2.217 0.0000
1708780792.5639 2.214 0.130 -0.0109 2.223 -0.0109
1708780792.5714 2.221 0.130 -0.0186 2.230 -0.0186
1708780792.5792 2.227 0.130 -0.0310 2.236 -0.0310
1708780792.5876 2.232 0.130 -0.0481 2.242 -0.0481
1708780792.5957 2.239 0.129 -0.0621 2.248 -0.0621
1708780792.6036 2.246 0.129 -0.0761 2.255 -0.0761
1708780792.6114 2.253 0.128 -0.0900 2.262 -0.0900
1708780792.6200 2.259 0.128 -0.1024 2.268 -0.1024
1708780792.6274 2.265 0.127 -0.1149 2.275 -0.1149
1708780792.6361 2.271 0.126 -0.1288 2.281 -0.1288
1708780792.6441 2.278 0.125 -0.1413 2.288 -0.1413
1708780792.6519 2.285 0.124 -0.1537 2.294 -0.1537
1708780792.6595 2.291 0.123 -0.1630 2.301 -0.1630
1708780792.6683 2.296 0.122 -0.1723 2.306 -0.1723
1708780792.6759 2.303 0.121 -0.1770 2.313 -0.1770
1708780792.6834 2.309 0.120 -0.1878 2.320 -0.1878
1708780792.6916 2.316 0.119 -0.1987 2.327 -0.1987
1708780792.6994 2.323 0.117 -0.2111 2.333 -0.2111
1708780792.7082 2.329 0.116 -0.2158 2.340 -0.2158
1708780792.7157 2.335 0.115 -0.2173 2.345 -0.2173
1708780792.7233 2.341 0.113 -0.2220 2.352 -0.2220
1708780792.7384 2.347 0.112 -0.2297 2.358 -0.2297
1708780792.7405 2.353 0.110 -0.2344 2.364 -0.2344
1708780792.7476 2.359 0.109 -0.2406 2.370 -0.2406
1708780792.7556 2.363 0.108 -0.2515 2.375 -0.2515
1708780792.7643 2.368 0.107 -0.2546 2.380 -0.2546
1708780792.7713 2.374 0.105 -0.2515 2.385 -0.2515
1708780792.7802 2.380 0.104 -0.2484 2.392 -0.2484
1708780792.7876 2.386 0.102 -0.2515 2.398 -0.2515
1708780792.7956 2.392 0.101 -0.2561 2.404 -0.2561
1708780792.8039 2.398 0.099 -0.2561 2.410 -0.2561
1708780792.8116 2.403 0.098 -0.2499 2.416 -0.2499
1708780792.8198 2.410 0.096 -0.2453 2.423 -0.2453
1708780792.8277 2.416 0.094 -0.2484 2.429 -0.2484
1708780792.8354 2.422 0.093 -0.2530 2.436 -0.2530
1708780792.8442 2.428 0.091 -0.2515 2.442 -0.2515
1708780792.8512 2.434 0.090 -0.2484 2.448 -0.2484
1708780792.8599 2.440 0.088 -0.2468 2.454 -0.2468
1708780792.8679 2.446 0.087 -0.2468 2.460 -0.2468
1708780792.8758 2.452 0.085 -0.2499 2.467 -0.2499
1708780792.8838 2.459 0.084 -0.2499 2.473 -0.2499
1708780792.8915 2.465 0.082 -0.2468 2.480 -0.2468
1708780792.9000 2.471 0.081 -0.2437 2.486 -0.2437
1708780792.9079 2.476 0.079 -0.2468 2.492 -0.2468
1708780792.9159 2.483 0.078 -0.2484 2.498 -0.2484
1708780792.9240 2.489 0.076 -0.2453 2.505 -0.2453
1708780792.9317 2.495 0.075 -0.2422 2.511 -0.2422
1708780792.9394 2.501 0.073 -0.2437 2.516 -0.2437
