% Pose without folding and reset (log_20240308_171315.517/log_pose_abs.txt)
% 1 	Time (sec)
% 2,3 	Position x,y (m)
% 4 	heading (rad)
% 5 	Driven distance (m) - signed
% 6 	Turned angle (rad) - signed
1709914395.9478 0.000 0.000 0.0000 0.000 0.0000
1709914395.9560 0.000 0.000 0.0000 0.000 0.0000
1709914395.9637 0.002 0.000 0.0031 0.002 0.0031
1709914395.9704 0.002 0.000 0.0047 0.002 0.0047
1709914395.9786 0.002 0.000 0.0047 0.002 0.0047
1709914395.9867 0.001 0.000 0.0016 0.001 0.0016
1709914395.9948 0.001 0.000 -0.0000 0.001 -0.0000
1709914396.0030 0.001 0.000 -0.0000 0.001 -0.0000
1709914396.0107 0.001 0.000 -0.0000 0.001 -0.0000
1709914396.0187 0.001 0.000 -0.0000 0.001 -0.0000
1709914396.0277 0.001 0.000 -0.0000 0.001 -0.0000
1709914396.0345 0.001 0.000 -0.0000 0.001 -0.0000
1709914396.0425 0.001 0.000 -0.0000 0.001 -0.0000
1709914396.0512 0.001 0.000 -0.0000 0.001 -0.0000
1709914396.0586 0.001 0.000 -0.0000 0.001 -0.0000
1709914396.0666 0.001 0.000 -0.0000 0.001 -0.0000
1709914396.0747 0.001 0.000 0.0016 0.001 0.0016
1709914396.0826 0.003 0.000 0.0016 0.003 0.0016
1709914396.0904 0.006 0.000 -0.0000 0.006 -0.0000
1709914396.0987 0.009 0.000 -0.0031 0.009 -0.0031
1709914396.1065 0.011 -0.000 -0.0031 0.011 -0.0031
1709914396.1144 0.013 -0.000 -0.0016 0.013 -0.0016
1709914396.1228 0.015 -0.000 -0.0016 0.015 -0.0016
1709914396.1310 0.018 -0.000 -0.0016 0.018 -0.0016
1709914396.1388 0.020 -0.000 -0.0000 0.020 -0.0000
1709914396.1484 0.023 -0.000 -0.0000 0.023 -0.0000
1709914396.1550 0.025 -0.000 -0.0016 0.025 -0.0016
1709914396.1628 0.028 -0.000 -0.0016 0.028 -0.0016
1709914396.1709 0.031 -0.000 -0.0000 0.031 -0.0000
1709914396.1793 0.033 -0.000 0.0016 0.033 0.0016
1709914396.1879 0.036 -0.000 0.0016 0.036 0.0016
1709914396.1950 0.040 -0.000 -0.0000 0.040 -0.0000
1709914396.2032 0.043 -0.000 -0.0000 0.043 -0.0000
1709914396.2107 0.045 -0.000 -0.0000 0.045 -0.0000
1709914396.2189 0.048 -0.000 -0.0000 0.048 -0.0000
1709914396.2272 0.051 -0.000 -0.0000 0.051 -0.0000
1709914396.2347 0.055 -0.000 0.0016 0.055 0.0016
1709914396.2434 0.058 -0.000 0.0016 0.058 0.0016
1709914396.2509 0.060 -0.000 0.0031 0.060 0.0031
1709914396.2587 0.063 0.000 0.0016 0.063 0.0016
1709914396.2719 0.066 0.000 -0.0000 0.066 -0.0000
1709914396.2746 0.070 0.000 -0.0000 0.070 -0.0000
1709914396.2833 0.073 0.000 -0.0000 0.073 -0.0000
1709914396.2905 0.074 0.000 -0.0000 0.074 -0.0000
1709914396.2987 0.075 0.000 -0.0016 0.075 -0.0016
1709914396.3071 0.078 -0.000 -0.0031 0.078 -0.0031
1709914396.3152 0.082 -0.000 -0.0016 0.082 -0.0016
1709914396.3233 0.085 -0.000 -0.0016 0.085 -0.0016
1709914396.3310 0.088 -0.000 -0.0000 0.088 -0.0000
1709914396.3392 0.090 -0.000 -0.0000 0.090 -0.0000
1709914396.3464 0.093 -0.000 -0.0016 0.093 -0.0016
1709914396.3552 0.097 -0.000 0.0016 0.097 0.0016
1709914396.3656 0.100 -0.000 0.0031 0.100 0.0031
1709914396.3704 0.102 -0.000 0.0031 0.102 0.0031
1709914396.3793 0.105 -0.000 -0.0000 0.105 -0.0000
1709914396.3868 0.107 -0.000 -0.0016 0.107 -0.0016
1709914396.3949 0.110 -0.000 -0.0000 0.110 -0.0000
1709914396.4027 0.114 -0.000 -0.0000 0.114 -0.0000
1709914396.4104 0.117 -0.000 -0.0016 0.117 -0.0016
1709914396.4187 0.120 -0.000 -0.0016 0.120 -0.0016
1709914396.4267 0.123 -0.000 -0.0000 0.123 -0.0000
1709914396.4350 0.126 -0.000 -0.0000 0.126 -0.0000
1709914396.4433 0.130 -0.000 -0.0016 0.130 -0.0016
1709914396.4509 0.133 -0.000 -0.0016 0.133 -0.0016
1709914396.4590 0.135 -0.000 -0.0000 0.135 -0.0000
1709914396.4664 0.138 -0.000 -0.0000 0.138 -0.0000
1709914396.4753 0.142 -0.000 -0.0016 0.142 -0.0016
1709914396.4825 0.145 -0.000 -0.0016 0.145 -0.0016
1709914396.4911 0.148 -0.000 0.0016 0.148 0.0016
1709914396.4995 0.151 -0.000 0.0016 0.151 0.0016
1709914396.5074 0.154 -0.000 -0.0000 0.154 -0.0000
1709914396.5146 0.158 -0.000 -0.0016 0.158 -0.0016
1709914396.5239 0.161 -0.000 -0.0000 0.161 -0.0000
1709914396.5310 0.164 -0.000 -0.0000 0.164 -0.0000
1709914396.5395 0.167 -0.000 -0.0000 0.167 -0.0000
1709914396.5473 0.170 -0.000 -0.0000 0.170 -0.0000
1709914396.5551 0.174 -0.000 -0.0000 0.174 -0.0000
1709914396.5633 0.178 -0.000 -0.0000 0.178 -0.0000
1709914396.5761 0.180 -0.000 -0.0000 0.180 -0.0000
1709914396.5789 0.183 -0.000 0.0016 0.183 0.0016
1709914396.5869 0.186 -0.000 -0.0000 0.186 -0.0000
1709914396.5945 0.188 -0.000 -0.0000 0.188 -0.0000
1709914396.6028 0.190 -0.000 0.0016 0.190 0.0016
1709914396.6107 0.193 -0.000 0.0016 0.193 0.0016
1709914396.6184 0.197 -0.000 -0.0000 0.197 -0.0000
1709914396.6265 0.200 -0.000 -0.0016 0.200 -0.0016
1709914396.6349 0.203 -0.000 -0.0000 0.203 -0.0000
1709914396.6426 0.206 -0.000 0.0016 0.206 0.0016
1709914396.6508 0.210 -0.000 0.0047 0.210 0.0047
1709914396.6591 0.213 0.000 0.0031 0.213 0.0031
1709914396.6671 0.216 0.000 0.0016 0.216 0.0016
1709914396.6753 0.219 0.000 0.0016 0.219 0.0016
1709914396.6833 0.222 0.000 0.0016 0.222 0.0016
1709914396.6910 0.225 0.000 -0.0000 0.225 -0.0000
1709914396.6989 0.228 0.000 -0.0000 0.228 -0.0000
1709914396.7076 0.231 0.000 -0.0000 0.231 -0.0000
1709914396.7146 0.234 0.000 -0.0000 0.234 -0.0000
1709914396.7228 0.238 0.000 -0.0000 0.238 -0.0000
1709914396.7310 0.241 0.000 -0.0016 0.241 -0.0016
1709914396.7387 0.244 0.000 -0.0000 0.244 -0.0000
1709914396.7469 0.247 0.000 -0.0000 0.247 -0.0000
1709914396.7584 0.250 0.000 0.0016 0.250 0.0016
1709914396.7634 0.253 0.000 -0.0000 0.253 -0.0000
1709914396.7716 0.257 0.000 -0.0016 0.257 -0.0016
1709914396.7789 0.260 0.000 -0.0016 0.260 -0.0016
1709914396.7870 0.262 0.000 -0.0000 0.262 -0.0000
1709914396.7954 0.265 0.000 -0.0000 0.265 -0.0000
1709914396.8027 0.269 0.000 0.0016 0.269 0.0016
1709914396.8104 0.272 0.000 -0.0000 0.272 -0.0000
1709914396.8198 0.275 0.000 -0.0016 0.275 -0.0016
1709914396.8271 0.278 0.000 -0.0031 0.278 -0.0031
1709914396.8358 0.281 0.000 -0.0031 0.281 -0.0031
1709914396.8432 0.285 -0.000 -0.0016 0.285 -0.0016
1709914396.8506 0.288 -0.000 -0.0016 0.288 -0.0016
1709914396.8584 0.291 -0.000 -0.0000 0.291 -0.0000
1709914396.8667 0.293 -0.000 -0.0000 0.293 -0.0000
1709914396.8754 0.296 -0.000 -0.0000 0.296 -0.0000
1709914396.8824 0.300 -0.000 -0.0000 0.300 -0.0000
1709914396.8908 0.304 -0.000 -0.0016 0.304 -0.0016
1709914396.8994 0.307 -0.000 -0.0000 0.307 -0.0000
1709914396.9082 0.309 -0.000 -0.0000 0.309 -0.0000
1709914396.9155 0.313 -0.000 0.0016 0.313 0.0016
1709914396.9228 0.316 -0.000 -0.0000 0.316 -0.0000
1709914396.9310 0.319 -0.000 -0.0000 0.319 -0.0000
1709914396.9396 0.322 -0.000 -0.0000 0.322 -0.0000
1709914396.9471 0.325 -0.000 0.0031 0.325 0.0031
1709914396.9550 0.329 -0.000 0.0031 0.329 0.0031
1709914396.9633 0.332 0.000 0.0016 0.332 0.0016
1709914396.9709 0.335 0.000 -0.0016 0.335 -0.0016
1709914396.9790 0.338 0.000 0.0016 0.338 0.0016
1709914396.9876 0.341 0.000 0.0031 0.341 0.0031
1709914396.9950 0.344 0.000 0.0031 0.344 0.0031
1709914397.0024 0.348 0.000 -0.0016 0.348 -0.0016
1709914397.0117 0.350 0.000 -0.0031 0.350 -0.0031
1709914397.0194 0.353 0.000 0.0016 0.353 0.0016
1709914397.0265 0.357 0.000 0.0031 0.357 0.0031
1709914397.0353 0.360 0.000 0.0016 0.360 0.0016
1709914397.0427 0.363 0.000 -0.0016 0.363 -0.0016
1709914397.0510 0.366 0.000 -0.0000 0.366 -0.0000
1709914397.0595 0.369 0.000 0.0031 0.369 0.0031
1709914397.0674 0.372 0.000 0.0047 0.372 0.0047
1709914397.0744 0.376 0.000 0.0016 0.376 0.0016
1709914397.0840 0.379 0.000 -0.0031 0.379 -0.0031
1709914397.0914 0.382 0.000 -0.0047 0.382 -0.0047
1709914397.0985 0.385 0.000 -0.0031 0.385 -0.0031
1709914397.1077 0.388 0.000 -0.0000 0.388 -0.0000
1709914397.1153 0.391 0.000 -0.0016 0.391 -0.0016
1709914397.1225 0.395 0.000 -0.0016 0.395 -0.0016
1709914397.1320 0.398 0.000 -0.0000 0.398 -0.0000
1709914397.1384 0.401 0.000 0.0016 0.401 0.0016
1709914397.1468 0.404 0.000 0.0016 0.404 0.0016
1709914397.1551 0.407 0.000 -0.0016 0.407 -0.0016
1709914397.1627 0.410 0.000 -0.0016 0.410 -0.0016
1709914397.1705 0.414 0.000 -0.0000 0.414 -0.0000
1709914397.1793 0.417 0.000 0.0016 0.417 0.0016
1709914397.1868 0.419 0.000 0.0031 0.419 0.0031
1709914397.1952 0.423 0.000 0.0016 0.423 0.0016
1709914397.2036 0.426 0.000 -0.0031 0.426 -0.0031
1709914397.2109 0.430 0.000 -0.0047 0.430 -0.0047
1709914397.2194 0.433 0.000 -0.0031 0.433 -0.0031
1709914397.2281 0.436 0.000 -0.0000 0.436 -0.0000
1709914397.2346 0.439 0.000 -0.0000 0.439 -0.0000
1709914397.2428 0.442 -0.000 -0.0016 0.442 -0.0016
1709914397.2514 0.445 -0.000 -0.0016 0.445 -0.0016
1709914397.2586 0.448 -0.000 -0.0000 0.448 -0.0000
1709914397.2681 0.452 -0.000 0.0016 0.452 0.0016
1709914397.2760 0.455 -0.000 -0.0000 0.455 -0.0000
1709914397.2827 0.458 -0.000 -0.0016 0.458 -0.0016
1709914397.2909 0.461 -0.000 -0.0016 0.461 -0.0016
1709914397.2994 0.464 -0.000 -0.0031 0.464 -0.0031
1709914397.3066 0.467 -0.000 -0.0016 0.467 -0.0016
1709914397.3150 0.471 -0.000 -0.0016 0.471 -0.0016
1709914397.3236 0.474 -0.000 -0.0016 0.474 -0.0016
1709914397.3311 0.477 -0.000 -0.0000 0.477 -0.0000
1709914397.3421 0.480 -0.000 -0.0000 0.480 -0.0000
1709914397.3481 0.483 -0.000 -0.0016 0.483 -0.0016
1709914397.3544 0.487 -0.000 -0.0047 0.487 -0.0047
1709914397.3625 0.490 -0.000 -0.0031 0.490 -0.0031
1709914397.3711 0.492 -0.000 -0.0000 0.492 -0.0000
1709914397.3784 0.495 -0.000 -0.0000 0.495 -0.0000
1709914397.3866 0.499 -0.000 -0.0000 0.499 -0.0000
1709914397.3951 0.502 -0.000 0.0016 0.502 0.0016
1709914397.4026 0.505 -0.000 0.0016 0.505 0.0016
1709914397.4104 0.508 -0.000 -0.0000 0.508 -0.0000
