% Pose without folding and reset (log_20240219_140455.680/log_pose_abs.txt)
% 1 	Time (sec)
% 2,3 	Position x,y (m)
% 4 	heading (rad)
% 5 	Driven distance (m) - signed
% 6 	Turned angle (rad) - signed
1708347896.4517 0.000 0.000 0.0000 0.000 0.0000
1708347896.4608 0.000 0.000 0.0000 0.000 0.0000
1708347896.4683 0.000 0.000 0.0000 0.000 0.0000
1708347896.4749 0.000 0.000 0.0000 0.000 0.0000
1708347896.4830 0.000 0.000 0.0000 0.000 0.0000
1708347896.4911 0.000 0.000 0.0000 0.000 0.0000
1708347896.4987 0.000 0.000 0.0000 0.000 0.0000
1708347896.5074 0.000 0.000 0.0000 0.000 0.0000
1708347896.5153 0.000 0.000 0.0000 0.000 0.0000
1708347896.5229 0.000 0.000 0.0000 0.000 0.0000
1708347896.5313 0.000 0.000 0.0000 0.000 0.0000
1708347896.5396 0.000 0.000 0.0000 0.000 0.0000
1708347896.5472 0.000 0.000 0.0000 0.000 0.0000
1708347896.5555 0.000 0.000 0.0000 0.000 0.0000
1708347896.5631 0.000 0.000 0.0000 0.000 0.0000
1708347896.5706 0.000 0.000 0.0000 0.000 0.0000
1708347896.5788 0.000 0.000 0.0016 0.000 0.0016
1708347896.5870 0.001 0.000 0.0047 0.001 0.0047
1708347896.5956 0.002 0.000 -0.0016 0.002 -0.0016
1708347896.6064 0.003 -0.000 -0.0047 0.003 -0.0047
1708347896.6176 0.004 -0.000 -0.0016 0.004 -0.0016
1708347896.6248 0.004 -0.000 -0.0000 0.004 0.0000
1708347896.6302 0.005 -0.000 0.0016 0.005 0.0016
1708347896.6365 0.007 0.000 0.0016 0.007 0.0016
1708347896.6446 0.008 0.000 0.0016 0.008 0.0016
1708347896.6535 0.010 0.000 0.0016 0.010 0.0016
1708347896.6608 0.012 0.000 0.0031 0.012 0.0031
1708347896.6685 0.014 0.000 0.0047 0.014 0.0047
1708347896.6759 0.016 0.000 0.0031 0.016 0.0031
1708347896.6832 0.018 0.000 0.0031 0.018 0.0031
1708347896.6915 0.021 0.000 0.0047 0.021 0.0047
1708347896.7045 0.023 0.000 0.0031 0.023 0.0031
1708347896.7082 0.026 0.000 0.0031 0.026 0.0031
1708347896.7208 0.028 0.000 0.0031 0.028 0.0031
1708347896.7280 0.030 0.000 0.0016 0.030 0.0016
1708347896.7334 0.031 0.000 0.0016 0.031 0.0016
1708347896.7425 0.033 0.000 0.0016 0.033 0.0016
1708347896.7523 0.036 0.000 0.0031 0.036 0.0031
1708347896.7598 0.039 0.000 0.0031 0.039 0.0031
1708347896.7632 0.043 0.000 0.0016 0.043 0.0016
1708347896.7707 0.045 0.000 -0.0000 0.045 0.0000
1708347896.7794 0.045 0.000 -0.0000 0.045 0.0000
1708347896.7878 0.046 0.000 0.0031 0.046 0.0031
1708347896.8004 0.048 0.000 0.0078 0.048 0.0078
1708347896.8037 0.051 0.000 0.0078 0.051 0.0078
1708347896.8117 0.055 0.000 0.0047 0.055 0.0047
1708347896.8197 0.055 0.000 0.0016 0.055 0.0016
1708347896.8278 0.055 0.000 0.0016 0.055 0.0016
1708347896.8354 0.057 0.000 -0.0016 0.057 -0.0016
1708347896.8472 0.060 0.000 0.0000 0.060 0.0000
1708347896.8508 0.063 0.000 0.0016 0.063 0.0016
1708347896.8596 0.065 0.000 -0.0016 0.065 -0.0016
1708347896.8678 0.065 0.000 -0.0031 0.065 -0.0031
1708347896.8748 0.066 0.000 -0.0031 0.066 -0.0031
1708347896.8837 0.068 0.000 -0.0016 0.068 -0.0016
1708347896.8908 0.071 0.000 -0.0016 0.071 -0.0016
1708347896.8996 0.074 0.000 -0.0016 0.074 -0.0016
1708347896.9083 0.075 0.000 -0.0031 0.075 -0.0031
1708347896.9150 0.077 0.000 -0.0016 0.077 -0.0016
1708347896.9236 0.079 0.000 0.0000 0.079 0.0000
1708347896.9315 0.082 0.000 -0.0016 0.082 -0.0016
1708347896.9386 0.084 0.000 -0.0047 0.084 -0.0047
1708347896.9476 0.086 0.000 -0.0031 0.086 -0.0031
1708347896.9554 0.088 0.000 0.0000 0.088 0.0000
1708347896.9679 0.090 0.000 0.0000 0.090 0.0000
1708347896.9729 0.092 0.000 -0.0016 0.092 -0.0016
1708347896.9801 0.095 0.000 -0.0047 0.095 -0.0047
1708347896.9872 0.096 0.000 -0.0016 0.096 -0.0016
1708347896.9993 0.097 0.000 0.0031 0.097 0.0031
1708347897.0054 0.099 0.000 0.0078 0.099 0.0078
1708347897.0121 0.101 0.000 0.0078 0.101 0.0078
1708347897.0197 0.104 0.000 0.0031 0.104 0.0031
1708347897.0278 0.107 0.000 0.0000 0.107 0.0000
1708347897.0347 0.109 0.000 0.0031 0.109 0.0031
1708347897.0427 0.110 0.000 0.0062 0.110 0.0062
1708347897.0507 0.113 0.000 0.0062 0.113 0.0062
1708347897.0594 0.116 0.000 0.0031 0.116 0.0031
1708347897.0670 0.118 0.000 0.0016 0.118 0.0016
1708347897.0749 0.120 0.000 0.0031 0.120 0.0031
1708347897.0836 0.122 0.000 0.0062 0.122 0.0062
1708347897.0909 0.125 0.000 0.0047 0.125 0.0047
1708347897.0987 0.127 0.000 0.0016 0.127 0.0016
1708347897.1080 0.129 0.000 0.0016 0.129 0.0016
1708347897.1153 0.132 0.000 0.0031 0.132 0.0031
1708347897.1231 0.135 0.000 0.0031 0.135 0.0031
1708347897.1314 0.137 0.000 -0.0000 0.137 -0.0000
1708347897.1387 0.139 0.000 -0.0000 0.139 -0.0000
1708347897.1474 0.141 0.000 -0.0000 0.141 -0.0000
1708347897.1554 0.144 0.000 0.0016 0.144 0.0016
1708347897.1633 0.147 0.000 -0.0000 0.147 -0.0000
1708347897.1713 0.149 0.000 -0.0016 0.149 -0.0016
1708347897.1789 0.151 0.000 -0.0016 0.151 -0.0016
1708347897.1877 0.153 0.000 -0.0016 0.153 -0.0016
1708347897.1948 0.156 0.000 -0.0000 0.156 -0.0000
1708347897.2030 0.159 0.000 -0.0016 0.159 -0.0016
1708347897.2112 0.161 0.000 -0.0047 0.161 -0.0047
1708347897.2190 0.163 0.000 -0.0047 0.163 -0.0047
1708347897.2273 0.165 0.000 -0.0016 0.165 -0.0016
1708347897.2350 0.168 0.000 -0.0000 0.168 -0.0000
1708347897.2428 0.171 0.000 -0.0031 0.171 -0.0031
1708347897.2511 0.173 0.000 -0.0047 0.173 -0.0047
1708347897.2590 0.175 0.000 -0.0031 0.175 -0.0031
1708347897.2671 0.178 0.000 -0.0000 0.178 -0.0000
1708347897.2755 0.180 0.000 -0.0000 0.180 -0.0000
1708347897.2836 0.183 0.000 -0.0047 0.183 -0.0047
1708347897.2916 0.185 0.000 -0.0062 0.185 -0.0062
1708347897.2989 0.187 0.000 -0.0031 0.187 -0.0031
1708347897.3078 0.190 0.000 -0.0000 0.190 -0.0000
1708347897.3156 0.192 0.000 -0.0031 0.192 -0.0031
1708347897.3236 0.195 0.000 -0.0062 0.195 -0.0062
1708347897.3308 0.197 0.000 -0.0047 0.197 -0.0047
1708347897.3387 0.199 0.000 -0.0000 0.199 -0.0000
1708347897.3471 0.201 0.000 -0.0000 0.201 -0.0000
1708347897.3555 0.204 0.000 -0.0031 0.204 -0.0031
1708347897.3633 0.207 0.000 -0.0047 0.207 -0.0047
1708347897.3708 0.209 0.000 -0.0031 0.209 -0.0031
1708347897.3792 0.211 0.000 -0.0000 0.211 -0.0000
1708347897.3871 0.213 0.000 -0.0000 0.213 -0.0000
1708347897.3947 0.216 0.000 -0.0016 0.216 -0.0016
1708347897.4032 0.219 0.000 -0.0031 0.219 -0.0031
1708347897.4107 0.221 0.000 -0.0016 0.221 -0.0016
1708347897.4188 0.223 0.000 -0.0016 0.223 -0.0016
1708347897.4271 0.225 0.000 -0.0016 0.225 -0.0016
1708347897.4348 0.228 0.000 -0.0031 0.228 -0.0031
1708347897.4430 0.231 0.000 -0.0031 0.231 -0.0031
1708347897.4510 0.233 0.000 -0.0016 0.233 -0.0016
1708347897.4595 0.235 0.000 -0.0031 0.235 -0.0031
1708347897.4668 0.237 0.000 -0.0031 0.237 -0.0031
1708347897.4747 0.239 0.000 -0.0016 0.239 -0.0016
1708347897.4828 0.243 0.000 -0.0031 0.243 -0.0031
1708347897.4918 0.245 0.000 -0.0031 0.245 -0.0031
1708347897.4989 0.246 0.000 -0.0031 0.246 -0.0031
1708347897.5079 0.248 0.000 -0.0047 0.248 -0.0047
1708347897.5153 0.251 0.000 -0.0047 0.251 -0.0047
1708347897.5229 0.254 -0.000 -0.0078 0.254 -0.0078
1708347897.5315 0.256 -0.000 -0.0078 0.256 -0.0078
1708347897.5442 0.258 -0.000 -0.0093 0.258 -0.0093
1708347897.5473 0.260 -0.000 -0.0093 0.260 -0.0093
1708347897.5556 0.263 -0.000 -0.0140 0.263 -0.0140
1708347897.5637 0.264 -0.000 -0.0186 0.264 -0.0186
1708347897.5710 0.265 -0.000 -0.0202 0.265 -0.0202
1708347897.5791 0.268 -0.000 -0.0217 0.268 -0.0217
1708347897.5868 0.271 -0.000 -0.0264 0.271 -0.0264
1708347897.5949 0.274 -0.000 -0.0295 0.274 -0.0295
1708347897.6037 0.276 -0.000 -0.0326 0.276 -0.0326
1708347897.6116 0.277 -0.000 -0.0388 0.277 -0.0388
1708347897.6189 0.280 -0.001 -0.0450 0.280 -0.0450
1708347897.6267 0.283 -0.001 -0.0450 0.283 -0.0450
1708347897.6352 0.285 -0.001 -0.0481 0.285 -0.0481
1708347897.6435 0.286 -0.001 -0.0543 0.286 -0.0543
1708347897.6514 0.289 -0.001 -0.0636 0.289 -0.0636
1708347897.6593 0.292 -0.001 -0.0667 0.292 -0.0667
1708347897.6676 0.294 -0.001 -0.0667 0.294 -0.0667
1708347897.6754 0.296 -0.002 -0.0730 0.296 -0.0730
1708347897.6834 0.299 -0.002 -0.0838 0.299 -0.0838
1708347897.6916 0.301 -0.002 -0.0900 0.301 -0.0900
1708347897.6994 0.303 -0.002 -0.0916 0.303 -0.0916
1708347897.7077 0.306 -0.002 -0.0978 0.306 -0.0978
1708347897.7152 0.309 -0.003 -0.1071 0.309 -0.1071
1708347897.7232 0.311 -0.003 -0.1149 0.311 -0.1149
1708347897.7313 0.313 -0.003 -0.1180 0.313 -0.1180
1708347897.7395 0.315 -0.003 -0.1226 0.316 -0.1226
1708347897.7472 0.318 -0.004 -0.1304 0.318 -0.1304
1708347897.7555 0.321 -0.004 -0.1382 0.321 -0.1382
1708347897.7634 0.322 -0.004 -0.1459 0.323 -0.1459
1708347897.7712 0.325 -0.005 -0.1490 0.325 -0.1490
1708347897.7795 0.327 -0.005 -0.1537 0.328 -0.1537
1708347897.7867 0.330 -0.006 -0.1599 0.331 -0.1599
1708347897.7975 0.332 -0.006 -0.1676 0.333 -0.1676
1708347897.8026 0.334 -0.006 -0.1723 0.334 -0.1723
1708347897.8115 0.336 -0.007 -0.1770 0.336 -0.1770
1708347897.8191 0.339 -0.007 -0.1801 0.339 -0.1801
1708347897.8275 0.341 -0.008 -0.1847 0.342 -0.1847
1708347897.8347 0.344 -0.008 -0.1909 0.344 -0.1909
1708347897.8436 0.346 -0.008 -0.1956 0.346 -0.1956
1708347897.8507 0.348 -0.009 -0.2002 0.348 -0.2002
1708347897.8587 0.350 -0.009 -0.2033 0.351 -0.2033
1708347897.8674 0.353 -0.010 -0.2111 0.354 -0.2111
1708347897.8756 0.356 -0.010 -0.2189 0.356 -0.2189
1708347897.8831 0.358 -0.011 -0.2235 0.358 -0.2235
1708347897.8915 0.360 -0.011 -0.2235 0.361 -0.2235
1708347897.8997 0.362 -0.012 -0.2266 0.363 -0.2266
1708347897.9084 0.365 -0.013 -0.2359 0.366 -0.2359
1708347897.9151 0.367 -0.013 -0.2422 0.368 -0.2422
1708347897.9233 0.369 -0.014 -0.2468 0.370 -0.2468
1708347897.9315 0.371 -0.014 -0.2484 0.373 -0.2484
1708347897.9393 0.374 -0.015 -0.2515 0.375 -0.2515
1708347897.9472 0.376 -0.015 -0.2608 0.378 -0.2608
1708347897.9553 0.378 -0.016 -0.2685 0.380 -0.2685
1708347897.9660 0.381 -0.017 -0.2701 0.382 -0.2701
1708347897.9711 0.383 -0.017 -0.2701 0.385 -0.2701
1708347897.9796 0.386 -0.018 -0.2747 0.388 -0.2747
1708347897.9874 0.387 -0.019 -0.2825 0.389 -0.2825
1708347897.9948 0.389 -0.019 -0.2887 0.391 -0.2887
1708347898.0028 0.391 -0.020 -0.2918 0.393 -0.2918
1708347898.0113 0.394 -0.021 -0.2949 0.396 -0.2949
1708347898.0191 0.397 -0.021 -0.2996 0.399 -0.2996
1708347898.0274 0.399 -0.022 -0.3042 0.401 -0.3042
1708347898.0351 0.400 -0.023 -0.3105 0.403 -0.3105
1708347898.0431 0.403 -0.023 -0.3167 0.405 -0.3167
1708347898.0508 0.406 -0.024 -0.3213 0.408 -0.3213
1708347898.0592 0.407 -0.025 -0.3244 0.410 -0.3244
1708347898.0674 0.409 -0.025 -0.3275 0.412 -0.3275
1708347898.0748 0.412 -0.026 -0.3322 0.415 -0.3322
1708347898.0827 0.415 -0.027 -0.3384 0.418 -0.3384
1708347898.0907 0.417 -0.028 -0.3446 0.420 -0.3446
1708347898.0990 0.419 -0.029 -0.3462 0.422 -0.3462
1708347898.1075 0.421 -0.029 -0.3493 0.424 -0.3493
1708347898.1149 0.423 -0.030 -0.3555 0.427 -0.3555
1708347898.1232 0.426 -0.031 -0.3617 0.430 -0.3617
1708347898.1309 0.428 -0.032 -0.3648 0.432 -0.3648
1708347898.1390 0.429 -0.033 -0.3679 0.434 -0.3679
1708347898.1470 0.432 -0.034 -0.3710 0.436 -0.3710
1708347898.1549 0.435 -0.035 -0.3756 0.439 -0.3756
1708347898.1635 0.437 -0.036 -0.3819 0.442 -0.3819
1708347898.1707 0.439 -0.036 -0.3865 0.444 -0.3865
1708347898.1794 0.441 -0.037 -0.3896 0.446 -0.3896
1708347898.1868 0.443 -0.038 -0.3927 0.448 -0.3927
1708347898.1952 0.446 -0.039 -0.3958 0.451 -0.3958
1708347898.2031 0.448 -0.040 -0.4005 0.454 -0.4005
1708347898.2109 0.450 -0.041 -0.4036 0.456 -0.4036
1708347898.2192 0.452 -0.042 -0.4067 0.458 -0.4067
1708347898.2267 0.454 -0.043 -0.4098 0.461 -0.4098
1708347898.2349 0.457 -0.044 -0.4145 0.463 -0.4145
1708347898.2432 0.459 -0.045 -0.4191 0.465 -0.4191
1708347898.2510 0.461 -0.046 -0.4207 0.468 -0.4207
1708347898.2589 0.463 -0.047 -0.4222 0.470 -0.4222
1708347898.2669 0.466 -0.048 -0.4269 0.473 -0.4269
1708347898.2747 0.468 -0.049 -0.4315 0.475 -0.4315
1708347898.2833 0.469 -0.050 -0.4362 0.477 -0.4362
1708347898.2916 0.471 -0.051 -0.4362 0.479 -0.4362
1708347898.2993 0.474 -0.052 -0.4346 0.482 -0.4346
1708347898.3088 0.476 -0.053 -0.4408 0.485 -0.4408
1708347898.3149 0.478 -0.054 -0.4486 0.487 -0.4486
1708347898.3227 0.480 -0.055 -0.4502 0.489 -0.4502
1708347898.3312 0.482 -0.056 -0.4455 0.491 -0.4455
1708347898.3394 0.485 -0.057 -0.4439 0.494 -0.4439
1708347898.3472 0.487 -0.058 -0.4486 0.496 -0.4486
1708347898.3554 0.489 -0.059 -0.4564 0.498 -0.4564
1708347898.3632 0.491 -0.060 -0.4548 0.501 -0.4548
1708347898.3710 0.493 -0.061 -0.4502 0.503 -0.4502
1708347898.3797 0.495 -0.062 -0.4517 0.506 -0.4517
1708347898.3870 0.498 -0.063 -0.4579 0.508 -0.4579
1708347898.3951 0.500 -0.064 -0.4626 0.511 -0.4626
1708347898.4032 0.502 -0.065 -0.4610 0.513 -0.4610
1708347898.4116 0.504 -0.066 -0.4579 0.515 -0.4579
1708347898.4195 0.506 -0.067 -0.4595 0.518 -0.4595
1708347898.4276 0.508 -0.068 -0.4657 0.520 -0.4657
1708347898.4348 0.510 -0.070 -0.4703 0.523 -0.4703
1708347898.4427 0.513 -0.071 -0.4688 0.525 -0.4688
1708347898.4514 0.514 -0.072 -0.4626 0.527 -0.4626
1708347898.4588 0.516 -0.073 -0.4641 0.529 -0.4641
1708347898.4671 0.519 -0.074 -0.4672 0.532 -0.4672
1708347898.4748 0.521 -0.075 -0.4688 0.534 -0.4688
1708347898.4833 0.523 -0.076 -0.4657 0.537 -0.4657
1708347898.4911 0.525 -0.077 -0.4672 0.538 -0.4672
1708347898.4990 0.527 -0.078 -0.4688 0.541 -0.4688
1708347898.5079 0.529 -0.079 -0.4688 0.544 -0.4688
1708347898.5147 0.532 -0.080 -0.4657 0.547 -0.4657
1708347898.5230 0.534 -0.081 -0.4657 0.548 -0.4657
1708347898.5313 0.535 -0.082 -0.4657 0.550 -0.4657
1708347898.5392 0.537 -0.083 -0.4672 0.553 -0.4672
1708347898.5469 0.540 -0.085 -0.4657 0.556 -0.4657
1708347898.5552 0.542 -0.086 -0.4641 0.558 -0.4641
1708347898.5627 0.544 -0.087 -0.4626 0.560 -0.4626
1708347898.5709 0.546 -0.088 -0.4610 0.563 -0.4610
1708347898.5793 0.549 -0.089 -0.4610 0.566 -0.4610
1708347898.5870 0.551 -0.090 -0.4626 0.568 -0.4626
1708347898.5952 0.553 -0.091 -0.4610 0.570 -0.4610
1708347898.6035 0.555 -0.092 -0.4579 0.572 -0.4579
1708347898.6108 0.557 -0.093 -0.4533 0.575 -0.4533
1708347898.6191 0.560 -0.094 -0.4564 0.577 -0.4564
1708347898.6271 0.562 -0.095 -0.4610 0.580 -0.4610
1708347898.6477 0.564 -0.096 -0.4579 0.582 -0.4579
1708347898.6495 0.566 -0.097 -0.4517 0.584 -0.4517
1708347898.6514 0.568 -0.098 -0.4424 0.587 -0.4424
1708347898.6591 0.570 -0.099 -0.4408 0.589 -0.4408
1708347898.6676 0.570 -0.099 -0.4502 0.590 -0.4502
1708347898.6754 0.571 -0.100 -0.4595 0.591 -0.4595
1708347898.6830 0.574 -0.101 -0.4626 0.593 -0.4626
1708347898.6916 0.576 -0.102 -0.4564 0.596 -0.4564
1708347898.6992 0.579 -0.104 -0.4502 0.599 -0.4502
1708347898.7080 0.580 -0.104 -0.4517 0.601 -0.4517
1708347898.7157 0.582 -0.105 -0.4595 0.602 -0.4595
1708347898.7232 0.584 -0.106 -0.4610 0.605 -0.4610
1708347898.7313 0.586 -0.107 -0.4548 0.607 -0.4548
1708347898.7394 0.588 -0.108 -0.4517 0.609 -0.4517
1708347898.7470 0.590 -0.109 -0.4533 0.611 -0.4533
1708347898.7551 0.592 -0.110 -0.4564 0.614 -0.4564
1708347898.7637 0.594 -0.111 -0.4579 0.616 -0.4579
1708347898.7717 0.596 -0.112 -0.4548 0.618 -0.4548
1708347898.7790 0.598 -0.113 -0.4548 0.621 -0.4548
1708347898.7869 0.600 -0.114 -0.4579 0.623 -0.4579
1708347898.7953 0.602 -0.115 -0.4595 0.625 -0.4595
1708347898.8037 0.604 -0.116 -0.4595 0.627 -0.4595
1708347898.8114 0.606 -0.117 -0.4579 0.630 -0.4579
1708347898.8188 0.609 -0.118 -0.4610 0.632 -0.4610
1708347898.8272 0.611 -0.119 -0.4626 0.634 -0.4626
1708347898.8347 0.613 -0.120 -0.4641 0.637 -0.4641
1708347898.8438 0.614 -0.121 -0.4626 0.639 -0.4626
1708347898.8512 0.617 -0.122 -0.4595 0.642 -0.4595
1708347898.8591 0.620 -0.124 -0.4610 0.644 -0.4610
1708347898.8676 0.621 -0.125 -0.4626 0.647 -0.4626
1708347898.8748 0.623 -0.125 -0.4626 0.648 -0.4626
1708347898.8832 0.625 -0.126 -0.4610 0.650 -0.4610
1708347898.8916 0.628 -0.128 -0.4610 0.653 -0.4610
1708347898.8994 0.630 -0.129 -0.4626 0.656 -0.4626
1708347898.9084 0.632 -0.130 -0.4641 0.659 -0.4641
1708347898.9150 0.634 -0.131 -0.4641 0.661 -0.4641
1708347898.9231 0.636 -0.132 -0.4595 0.663 -0.4595
1708347898.9310 0.639 -0.133 -0.4579 0.666 -0.4579
1708347898.9395 0.641 -0.134 -0.4595 0.668 -0.4595
1708347898.9469 0.643 -0.135 -0.4626 0.671 -0.4626
1708347898.9554 0.645 -0.136 -0.4595 0.673 -0.4595
1708347898.9638 0.647 -0.137 -0.4533 0.675 -0.4533
1708347898.9713 0.649 -0.138 -0.4502 0.677 -0.4502
1708347898.9796 0.652 -0.140 -0.4548 0.680 -0.4548
1708347898.9891 0.654 -0.141 -0.4610 0.683 -0.4610
1708347898.9947 0.656 -0.142 -0.4579 0.685 -0.4579
1708347899.0032 0.658 -0.143 -0.4517 0.687 -0.4517
1708347899.0112 0.660 -0.143 -0.4455 0.689 -0.4455
1708347899.0196 0.662 -0.145 -0.4471 0.691 -0.4470
1708347899.0269 0.664 -0.146 -0.4502 0.694 -0.4502
1708347899.0351 0.667 -0.147 -0.4502 0.697 -0.4502
1708347899.0432 0.668 -0.148 -0.4455 0.699 -0.4455
1708347899.0516 0.670 -0.149 -0.4408 0.701 -0.4408
1708347899.0592 0.673 -0.150 -0.4408 0.703 -0.4408
1708347899.0731 0.675 -0.151 -0.4424 0.706 -0.4424
1708347899.0753 0.677 -0.152 -0.4424 0.709 -0.4424
1708347899.0843 0.679 -0.153 -0.4408 0.710 -0.4408
1708347899.0929 0.678 -0.152 -0.4377 0.710 -0.4377
1708347899.1123 0.679 -0.153 -0.4362 0.711 -0.4362
1708347899.1147 0.682 -0.154 -0.4362 0.714 -0.4362
1708347899.1170 0.686 -0.156 -0.4377 0.718 -0.4377
1708347899.1236 0.689 -0.157 -0.4393 0.722 -0.4393
1708347899.1310 0.689 -0.157 -0.4377 0.722 -0.4377
1708347899.1389 0.689 -0.158 -0.4346 0.722 -0.4346
1708347899.1473 0.692 -0.159 -0.4315 0.725 -0.4315
1708347899.1556 0.695 -0.160 -0.4315 0.728 -0.4315
1708347899.1635 0.697 -0.161 -0.4331 0.731 -0.4331
1708347899.1712 0.699 -0.162 -0.4300 0.732 -0.4300
1708347899.1795 0.700 -0.163 -0.4253 0.734 -0.4253
1708347899.1874 0.703 -0.164 -0.4207 0.736 -0.4207
1708347899.1957 0.705 -0.165 -0.4176 0.739 -0.4176
1708347899.2032 0.708 -0.166 -0.4191 0.742 -0.4191
1708347899.2155 0.709 -0.167 -0.4191 0.744 -0.4191
1708347899.2193 0.711 -0.167 -0.4129 0.745 -0.4129
1708347899.2277 0.713 -0.168 -0.4113 0.748 -0.4113
1708347899.2376 0.715 -0.169 -0.4145 0.750 -0.4145
1708347899.2428 0.717 -0.170 -0.4191 0.752 -0.4191
1708347899.2511 0.719 -0.171 -0.4160 0.754 -0.4160
1708347899.2593 0.721 -0.172 -0.4082 0.756 -0.4082
1708347899.2669 0.723 -0.173 -0.4082 0.759 -0.4082
1708347899.2753 0.725 -0.174 -0.4145 0.761 -0.4145
1708347899.2831 0.727 -0.174 -0.4176 0.763 -0.4176
1708347899.2915 0.729 -0.175 -0.4129 0.765 -0.4129
1708347899.2988 0.731 -0.176 -0.4067 0.768 -0.4067
1708347899.3081 0.733 -0.177 -0.4067 0.770 -0.4067
1708347899.3154 0.735 -0.178 -0.4129 0.772 -0.4129
1708347899.3232 0.737 -0.179 -0.4160 0.774 -0.4160
1708347899.3310 0.739 -0.180 -0.4082 0.776 -0.4082
1708347899.3388 0.741 -0.181 -0.4020 0.779 -0.4020
1708347899.3481 0.743 -0.181 -0.4051 0.781 -0.4051
1708347899.3549 0.746 -0.183 -0.4113 0.784 -0.4113
1708347899.3628 0.748 -0.184 -0.4098 0.786 -0.4098
1708347899.3713 0.750 -0.184 -0.4036 0.788 -0.4036
1708347899.3792 0.752 -0.185 -0.4005 0.791 -0.4005
1708347899.3877 0.754 -0.186 -0.4036 0.793 -0.4036
1708347899.3956 0.757 -0.187 -0.4067 0.796 -0.4067
1708347899.4037 0.759 -0.188 -0.4051 0.798 -0.4051
1708347899.4109 0.761 -0.189 -0.4005 0.800 -0.4005
1708347899.4187 0.763 -0.190 -0.3958 0.802 -0.3958
1708347899.4274 0.765 -0.191 -0.3958 0.805 -0.3958
1708347899.4356 0.768 -0.192 -0.3989 0.807 -0.3989
1708347899.4436 0.770 -0.193 -0.3989 0.810 -0.3989
1708347899.4511 0.773 -0.194 -0.3958 0.813 -0.3958
1708347899.4596 0.775 -0.195 -0.3927 0.815 -0.3927
1708347899.4672 0.776 -0.195 -0.3912 0.817 -0.3912
1708347899.4754 0.779 -0.196 -0.3912 0.819 -0.3912
1708347899.4836 0.782 -0.198 -0.3896 0.822 -0.3896
1708347899.4910 0.784 -0.199 -0.3896 0.825 -0.3896
1708347899.4987 0.786 -0.199 -0.3865 0.827 -0.3865
1708347899.5078 0.787 -0.200 -0.3850 0.829 -0.3850
1708347899.5153 0.790 -0.201 -0.3850 0.831 -0.3850
1708347899.5236 0.793 -0.202 -0.3850 0.834 -0.3850
1708347899.5307 0.795 -0.203 -0.3850 0.837 -0.3850
1708347899.5393 0.797 -0.204 -0.3850 0.840 -0.3850
1708347899.5474 0.799 -0.205 -0.3834 0.842 -0.3834
1708347899.5548 0.801 -0.206 -0.3834 0.844 -0.3834
1708347899.5631 0.804 -0.207 -0.3834 0.846 -0.3834
1708347899.5711 0.806 -0.208 -0.3819 0.849 -0.3819
1708347899.5798 0.808 -0.208 -0.3819 0.851 -0.3819
1708347899.5871 0.810 -0.209 -0.3803 0.853 -0.3803
