% Pose without folding and reset (log_20240224_114541.047/log_pose_abs.txt)
% 1 	Time (sec)
% 2,3 	Position x,y (m)
% 4 	heading (rad)
% 5 	Driven distance (m) - signed
% 6 	Turned angle (rad) - signed
1708771541.7777 0.000 0.000 0.0000 0.000 0.0000
1708771541.7873 0.000 0.000 0.0000 0.000 0.0000
1708771541.7936 0.000 0.000 0.0000 0.000 0.0000
1708771541.8011 0.000 0.000 0.0000 0.000 0.0000
1708771541.8098 0.000 0.000 0.0000 0.000 0.0000
1708771541.8172 0.000 0.000 0.0000 0.000 0.0000
1708771541.8259 0.000 0.000 0.0000 0.000 0.0000
1708771541.8342 0.000 0.000 0.0000 0.000 0.0000
1708771541.8415 0.000 0.000 0.0000 0.000 0.0000
1708771541.8491 0.000 0.000 0.0000 0.000 0.0000
1708771541.8583 0.000 0.000 0.0000 0.000 0.0000
1708771541.8653 0.000 0.000 0.0000 0.000 0.0000
1708771541.8733 0.000 0.000 0.0000 0.000 0.0000
1708771541.8822 0.000 0.000 0.0000 0.000 0.0000
1708771541.8900 0.000 0.000 0.0000 0.000 0.0000
1708771541.8971 0.000 0.000 0.0000 0.000 0.0000
1708771541.9058 0.000 0.000 0.0016 0.000 0.0016
1708771541.9141 0.002 0.000 0.0016 0.002 0.0016
1708771541.9215 0.004 0.000 0.0000 0.004 0.0000
1708771541.9300 0.005 0.000 -0.0031 0.005 -0.0031
1708771541.9375 0.006 0.000 -0.0016 0.006 -0.0016
1708771541.9457 0.007 -0.000 -0.0016 0.007 -0.0016
1708771541.9558 0.009 -0.000 -0.0031 0.009 -0.0031
1708771541.9616 0.011 -0.000 -0.0031 0.011 -0.0031
1708771541.9694 0.012 -0.000 -0.0047 0.012 -0.0047
1708771541.9791 0.014 -0.000 -0.0047 0.014 -0.0047
1708771541.9855 0.017 -0.000 -0.0031 0.017 -0.0031
1708771541.9937 0.020 -0.000 -0.0031 0.020 -0.0031
1708771542.0027 0.022 -0.000 -0.0047 0.022 -0.0047
1708771542.0094 0.025 -0.000 -0.0047 0.025 -0.0047
1708771542.0174 0.028 -0.000 -0.0062 0.028 -0.0062
1708771542.0268 0.031 -0.000 -0.0062 0.031 -0.0062
1708771542.0342 0.035 -0.000 -0.0078 0.035 -0.0078
1708771542.0411 0.038 -0.000 -0.0109 0.038 -0.0109
1708771542.0503 0.041 -0.000 -0.0109 0.041 -0.0109
1708771542.0569 0.044 -0.000 -0.0093 0.044 -0.0093
1708771542.0657 0.047 -0.000 -0.0093 0.047 -0.0093
1708771542.0746 0.051 -0.000 -0.0124 0.051 -0.0124
1708771542.0812 0.054 -0.000 -0.0155 0.054 -0.0155
1708771542.0898 0.058 -0.000 -0.0155 0.058 -0.0155
1708771542.0977 0.061 -0.000 -0.0140 0.061 -0.0140
1708771542.1054 0.064 -0.000 -0.0155 0.064 -0.0155
1708771542.1131 0.067 -0.001 -0.0202 0.067 -0.0202
1708771542.1221 0.071 -0.001 -0.0217 0.071 -0.0217
1708771542.1297 0.074 -0.001 -0.0217 0.074 -0.0217
1708771542.1372 0.077 -0.001 -0.0217 0.077 -0.0217
1708771542.1462 0.080 -0.001 -0.0217 0.080 -0.0217
1708771542.1539 0.084 -0.001 -0.0233 0.084 -0.0233
1708771542.1617 0.088 -0.001 -0.0233 0.088 -0.0233
1708771542.1699 0.091 -0.001 -0.0217 0.091 -0.0217
1708771542.1787 0.094 -0.001 -0.0233 0.094 -0.0233
1708771542.1858 0.097 -0.001 -0.0264 0.097 -0.0264
1708771542.1945 0.101 -0.001 -0.0279 0.101 -0.0279
1708771542.2009 0.104 -0.001 -0.0264 0.104 -0.0264
1708771542.2089 0.107 -0.001 -0.0233 0.107 -0.0233
1708771542.2180 0.109 -0.002 -0.0248 0.109 -0.0248
1708771542.2258 0.113 -0.002 -0.0264 0.113 -0.0264
1708771542.2344 0.117 -0.002 -0.0279 0.117 -0.0279
1708771542.2423 0.120 -0.002 -0.0264 0.120 -0.0264
1708771542.2495 0.122 -0.002 -0.0248 0.122 -0.0248
1708771542.2572 0.125 -0.002 -0.0248 0.125 -0.0248
1708771542.2660 0.128 -0.002 -0.0233 0.128 -0.0233
1708771542.2733 0.132 -0.002 -0.0248 0.132 -0.0248
1708771542.2810 0.135 -0.002 -0.0248 0.135 -0.0248
1708771542.2902 0.138 -0.002 -0.0233 0.138 -0.0233
1708771542.2979 0.140 -0.002 -0.0202 0.141 -0.0202
1708771542.3056 0.144 -0.002 -0.0186 0.144 -0.0186
1708771542.3145 0.147 -0.002 -0.0186 0.147 -0.0186
1708771542.3210 0.151 -0.003 -0.0202 0.151 -0.0202
1708771542.3297 0.154 -0.003 -0.0171 0.154 -0.0171
1708771542.3380 0.156 -0.003 -0.0124 0.156 -0.0124
1708771542.3456 0.159 -0.003 -0.0078 0.159 -0.0078
1708771542.3533 0.163 -0.003 -0.0093 0.163 -0.0093
1708771542.3627 0.166 -0.003 -0.0124 0.166 -0.0124
1708771542.3738 0.170 -0.003 -0.0140 0.170 -0.0140
1708771542.3783 0.173 -0.003 -0.0078 0.173 -0.0078
1708771542.3881 0.176 -0.003 0.0000 0.176 0.0000
1708771542.3937 0.178 -0.003 0.0016 0.178 0.0016
1708771542.4010 0.180 -0.003 0.0016 0.180 0.0016
1708771542.4099 0.184 -0.003 0.0031 0.184 0.0031
1708771542.4170 0.188 -0.003 0.0078 0.188 0.0078
1708771542.4257 0.191 -0.003 0.0109 0.191 0.0109
1708771542.4342 0.194 -0.003 0.0140 0.194 0.0140
1708771542.4410 0.197 -0.003 0.0202 0.197 0.0202
1708771542.4499 0.201 -0.003 0.0217 0.201 0.0217
1708771542.4578 0.204 -0.002 0.0217 0.204 0.0217
1708771542.4656 0.207 -0.002 0.0248 0.207 0.0248
1708771542.4734 0.210 -0.002 0.0310 0.210 0.0310
1708771542.4823 0.213 -0.002 0.0357 0.213 0.0357
1708771542.4899 0.216 -0.002 0.0341 0.216 0.0341
1708771542.4977 0.219 -0.002 0.0341 0.220 0.0341
1708771542.5065 0.223 -0.002 0.0404 0.223 0.0404
1708771542.5130 0.226 -0.002 0.0466 0.226 0.0466
1708771542.5218 0.229 -0.002 0.0497 0.229 0.0497
1708771542.5298 0.231 -0.001 0.0481 0.231 0.0481
1708771542.5370 0.235 -0.001 0.0497 0.235 0.0497
1708771542.5459 0.238 -0.001 0.0559 0.238 0.0559
1708771542.5537 0.241 -0.001 0.0621 0.241 0.0621
1708771542.5618 0.245 -0.001 0.0636 0.245 0.0636
1708771542.5698 0.248 -0.001 0.0636 0.248 0.0636
1708771542.5775 0.251 -0.000 0.0667 0.251 0.0667
1708771542.5858 0.254 -0.000 0.0745 0.254 0.0745
1708771542.5935 0.257 0.000 0.0776 0.257 0.0776
1708771542.6023 0.260 0.000 0.0761 0.260 0.0761
1708771542.6097 0.264 0.001 0.0761 0.264 0.0761
1708771542.6175 0.267 0.001 0.0823 0.267 0.0823
1708771542.6262 0.270 0.001 0.0885 0.270 0.0885
1708771542.6346 0.273 0.001 0.0900 0.273 0.0900
1708771542.6414 0.276 0.002 0.0900 0.276 0.0900
1708771542.6500 0.280 0.002 0.0885 0.280 0.0885
1708771542.6576 0.283 0.002 0.0916 0.283 0.0916
1708771542.6653 0.286 0.003 0.0978 0.286 0.0978
1708771542.6741 0.289 0.003 0.0993 0.289 0.0993
1708771542.6818 0.292 0.003 0.0978 0.292 0.0978
1708771542.6890 0.296 0.004 0.0978 0.296 0.0978
1708771542.6976 0.299 0.004 0.1009 0.299 0.1009
1708771542.7052 0.301 0.004 0.1040 0.302 0.1040
1708771542.7134 0.304 0.004 0.1056 0.304 0.1056
1708771542.7223 0.307 0.005 0.1024 0.308 0.1024
1708771542.7289 0.311 0.005 0.1040 0.312 0.1040
1708771542.7382 0.315 0.006 0.1087 0.315 0.1087
1708771542.7461 0.317 0.006 0.1102 0.317 0.1102
1708771542.7539 0.320 0.006 0.1087 0.320 0.1087
1708771542.7617 0.324 0.006 0.1056 0.324 0.1056
1708771542.7705 0.327 0.007 0.1071 0.328 0.1071
1708771542.7778 0.330 0.007 0.1087 0.330 0.1087
1708771542.7859 0.333 0.007 0.1087 0.333 0.1087
1708771542.7937 0.336 0.008 0.1040 0.337 0.1040
1708771542.8013 0.340 0.008 0.1040 0.340 0.1040
1708771542.8092 0.343 0.009 0.1056 0.343 0.1056
1708771542.8181 0.346 0.009 0.1056 0.346 0.1056
1708771542.8257 0.349 0.009 0.1024 0.349 0.1024
1708771542.8340 0.352 0.010 0.1009 0.353 0.1009
1708771542.8418 0.356 0.010 0.1009 0.356 0.1009
1708771542.8494 0.359 0.010 0.1040 0.359 0.1040
1708771542.8571 0.362 0.010 0.1009 0.362 0.1009
1708771542.8659 0.365 0.011 0.0962 0.366 0.0962
1708771542.8733 0.368 0.011 0.0947 0.369 0.0947
1708771542.8811 0.371 0.011 0.0962 0.372 0.0962
1708771542.8906 0.374 0.012 0.0947 0.375 0.0947
1708771542.8971 0.378 0.012 0.0900 0.378 0.0900
1708771542.9050 0.381 0.012 0.0869 0.382 0.0869
1708771542.9138 0.384 0.013 0.0869 0.384 0.0869
1708771542.9212 0.386 0.013 0.0869 0.387 0.0869
1708771542.9289 0.390 0.013 0.0869 0.390 0.0869
1708771542.9384 0.394 0.013 0.0854 0.394 0.0854
1708771542.9450 0.397 0.014 0.0823 0.398 0.0823
1708771542.9532 0.399 0.014 0.0807 0.400 0.0807
1708771542.9621 0.402 0.014 0.0807 0.403 0.0807
1708771542.9695 0.405 0.014 0.0807 0.406 0.0807
1708771542.9773 0.409 0.015 0.0792 0.410 0.0792
1708771542.9856 0.413 0.015 0.0776 0.413 0.0776
1708771542.9932 0.415 0.015 0.0776 0.416 0.0776
1708771543.0009 0.418 0.015 0.0761 0.419 0.0761
1708771543.0095 0.422 0.016 0.0761 0.423 0.0761
1708771543.0172 0.425 0.016 0.0745 0.426 0.0745
1708771543.0251 0.428 0.016 0.0714 0.429 0.0714
1708771543.0346 0.431 0.016 0.0714 0.432 0.0714
1708771543.0411 0.434 0.017 0.0714 0.435 0.0714
1708771543.0489 0.438 0.017 0.0699 0.438 0.0699
1708771543.0586 0.440 0.017 0.0683 0.441 0.0683
1708771543.0651 0.443 0.017 0.0667 0.444 0.0667
1708771543.0739 0.446 0.017 0.0667 0.447 0.0667
1708771543.0817 0.450 0.018 0.0667 0.451 0.0667
1708771543.0899 0.453 0.018 0.0636 0.454 0.0636
1708771543.0975 0.456 0.018 0.0636 0.457 0.0636
1708771543.1063 0.459 0.018 0.0667 0.460 0.0667
1708771543.1139 0.462 0.018 0.0667 0.463 0.0667
1708771543.1217 0.466 0.019 0.0636 0.467 0.0636
1708771543.1305 0.469 0.019 0.0605 0.470 0.0605
1708771543.1377 0.472 0.019 0.0636 0.473 0.0636
1708771543.1452 0.475 0.019 0.0667 0.476 0.0667
1708771543.1540 0.478 0.019 0.0652 0.479 0.0652
1708771543.1618 0.481 0.020 0.0590 0.482 0.0590
1708771543.1695 0.485 0.020 0.0559 0.486 0.0559
1708771543.1783 0.488 0.020 0.0605 0.489 0.0605
1708771543.1855 0.491 0.020 0.0652 0.492 0.0652
1708771543.1929 0.494 0.020 0.0652 0.495 0.0652
1708771543.2021 0.497 0.021 0.0590 0.498 0.0590
1708771543.2098 0.501 0.021 0.0559 0.502 0.0559
1708771543.2177 0.504 0.021 0.0590 0.505 0.0590
1708771543.2266 0.507 0.021 0.0636 0.508 0.0636
1708771543.2335 0.510 0.021 0.0621 0.511 0.0621
1708771543.2413 0.513 0.022 0.0590 0.514 0.0590
1708771543.2501 0.517 0.022 0.0574 0.518 0.0574
1708771543.2577 0.519 0.022 0.0621 0.521 0.0621
1708771543.2656 0.523 0.022 0.0636 0.524 0.0636
1708771543.2744 0.526 0.022 0.0605 0.527 0.0605
1708771543.2819 0.529 0.023 0.0543 0.531 0.0543
1708771543.2894 0.533 0.023 0.0574 0.534 0.0574
1708771543.2982 0.536 0.023 0.0621 0.537 0.0621
1708771543.3058 0.538 0.023 0.0621 0.539 0.0621
1708771543.3136 0.542 0.023 0.0621 0.543 0.0621
1708771543.3224 0.545 0.024 0.0605 0.546 0.0605
1708771543.3298 0.549 0.024 0.0605 0.550 0.0605
1708771543.3371 0.551 0.024 0.0621 0.553 0.0621
1708771543.3460 0.554 0.024 0.0652 0.555 0.0652
1708771543.3536 0.558 0.024 0.0652 0.559 0.0652
1708771543.3613 0.561 0.025 0.0652 0.562 0.0652
1708771543.3699 0.564 0.025 0.0636 0.566 0.0636
1708771543.3776 0.567 0.025 0.0636 0.568 0.0636
1708771543.3849 0.570 0.025 0.0667 0.571 0.0667
1708771543.3940 0.574 0.025 0.0683 0.575 0.0683
1708771543.4017 0.577 0.026 0.0667 0.578 0.0667
1708771543.4094 0.581 0.026 0.0636 0.582 0.0636
1708771543.4180 0.583 0.026 0.0636 0.584 0.0636
1708771543.4256 0.586 0.026 0.0667 0.587 0.0667
1708771543.4340 0.589 0.026 0.0699 0.591 0.0699
1708771543.4418 0.593 0.027 0.0683 0.594 0.0683
1708771543.4494 0.596 0.027 0.0652 0.597 0.0652
1708771543.4580 0.599 0.027 0.0652 0.600 0.0652
1708771543.4662 0.602 0.027 0.0683 0.603 0.0683
1708771543.4729 0.605 0.027 0.0714 0.607 0.0714
1708771543.4817 0.609 0.028 0.0730 0.610 0.0730
1708771543.4901 0.612 0.028 0.0714 0.613 0.0714
1708771543.4977 0.615 0.028 0.0683 0.616 0.0683
1708771543.5053 0.618 0.028 0.0683 0.619 0.0683
1708771543.5141 0.621 0.029 0.0714 0.623 0.0714
1708771543.5217 0.625 0.029 0.0730 0.626 0.0730
1708771543.5295 0.628 0.029 0.0699 0.629 0.0699
1708771543.5379 0.631 0.029 0.0699 0.632 0.0699
1708771543.5455 0.634 0.029 0.0714 0.635 0.0714
1708771543.5531 0.637 0.030 0.0730 0.638 0.0730
1708771543.5621 0.640 0.030 0.0714 0.642 0.0714
1708771543.5698 0.644 0.030 0.0699 0.645 0.0699
1708771543.5775 0.647 0.030 0.0699 0.648 0.0699
1708771543.5859 0.650 0.031 0.0745 0.651 0.0745
1708771543.5933 0.653 0.031 0.0776 0.654 0.0776
1708771543.6011 0.656 0.031 0.0745 0.657 0.0745
1708771543.6100 0.659 0.031 0.0699 0.661 0.0699
1708771543.6176 0.662 0.032 0.0730 0.664 0.0730
1708771543.6254 0.666 0.032 0.0807 0.667 0.0807
1708771543.6348 0.669 0.032 0.0792 0.670 0.0792
1708771543.6417 0.672 0.032 0.0745 0.673 0.0745
1708771543.6495 0.675 0.033 0.0745 0.677 0.0745
1708771543.6584 0.679 0.033 0.0807 0.680 0.0807
1708771543.6649 0.681 0.033 0.0869 0.683 0.0869
1708771543.6738 0.684 0.033 0.0885 0.686 0.0885
1708771543.6816 0.688 0.034 0.0854 0.689 0.0854
1708771543.6896 0.691 0.034 0.0838 0.693 0.0838
1708771543.6973 0.694 0.034 0.0900 0.696 0.0900
1708771543.7061 0.697 0.034 0.0978 0.699 0.0978
1708771543.7137 0.700 0.035 0.0978 0.702 0.0978
1708771543.7214 0.704 0.035 0.0978 0.705 0.0978
1708771543.7304 0.707 0.035 0.1024 0.709 0.1024
1708771543.7386 0.710 0.036 0.1087 0.712 0.1087
1708771543.7455 0.713 0.036 0.1118 0.715 0.1118
1708771543.7544 0.717 0.036 0.1133 0.718 0.1133
1708771543.7610 0.720 0.037 0.1164 0.722 0.1164
1708771543.7699 0.723 0.037 0.1226 0.724 0.1226
1708771543.7781 0.725 0.038 0.1288 0.727 0.1288
1708771543.7853 0.729 0.038 0.1288 0.730 0.1288
1708771543.7931 0.733 0.038 0.1304 0.734 0.1304
1708771543.8020 0.735 0.039 0.1319 0.737 0.1319
1708771543.8097 0.738 0.039 0.1382 0.740 0.1382
1708771543.8182 0.741 0.040 0.1428 0.743 0.1428
1708771543.8260 0.745 0.040 0.1459 0.747 0.1459
1708771543.8343 0.748 0.041 0.1444 0.750 0.1444
1708771543.8410 0.751 0.041 0.1459 0.753 0.1459
1708771543.8499 0.754 0.041 0.1537 0.756 0.1537
1708771543.8576 0.757 0.042 0.1630 0.759 0.1630
1708771543.8651 0.760 0.043 0.1661 0.763 0.1661
1708771543.8739 0.764 0.043 0.1645 0.766 0.1645
1708771543.8815 0.766 0.044 0.1630 0.769 0.1630
1708771543.8945 0.769 0.044 0.1707 0.771 0.1707
1708771543.8979 0.773 0.045 0.1801 0.775 0.1801
1708771543.9056 0.776 0.045 0.1863 0.778 0.1863
1708771543.9134 0.777 0.045 0.1816 0.779 0.1816
1708771543.9223 0.779 0.046 0.1785 0.782 0.1785
1708771543.9300 0.783 0.046 0.1816 0.785 0.1816
1708771543.9373 0.787 0.047 0.1863 0.789 0.1863
1708771543.9462 0.790 0.048 0.1925 0.792 0.1925
1708771543.9536 0.792 0.048 0.1940 0.794 0.1940
1708771543.9614 0.794 0.049 0.1956 0.797 0.1956
1708771543.9703 0.798 0.049 0.1987 0.800 0.1987
1708771543.9779 0.801 0.050 0.2018 0.804 0.2018
1708771543.9853 0.804 0.051 0.2033 0.807 0.2033
1708771543.9943 0.806 0.051 0.2049 0.809 0.2049
1708771544.0017 0.809 0.052 0.2064 0.812 0.2064
1708771544.0091 0.813 0.052 0.2111 0.816 0.2111
1708771544.0180 0.816 0.053 0.2142 0.819 0.2142
1708771544.0257 0.818 0.054 0.2142 0.822 0.2142
1708771544.0341 0.821 0.054 0.2127 0.824 0.2127
1708771544.0418 0.825 0.055 0.2158 0.828 0.2158
1708771544.0493 0.828 0.056 0.2189 0.831 0.2189
1708771544.0570 0.831 0.056 0.2189 0.834 0.2189
1708771544.0659 0.834 0.057 0.2158 0.837 0.2158
1708771544.0736 0.837 0.058 0.2158 0.840 0.2158
1708771544.0814 0.840 0.058 0.2189 0.844 0.2189
1708771544.0896 0.843 0.059 0.2220 0.847 0.2220
1708771544.0972 0.846 0.060 0.2204 0.850 0.2204
1708771544.1049 0.849 0.061 0.2173 0.853 0.2173
1708771544.1138 0.852 0.061 0.2173 0.856 0.2173
1708771544.1215 0.855 0.062 0.2220 0.859 0.2220
1708771544.1296 0.859 0.063 0.2235 0.863 0.2235
1708771544.1384 0.862 0.063 0.2204 0.866 0.2204
1708771544.1450 0.865 0.064 0.2158 0.870 0.2158
1708771544.1538 0.868 0.065 0.2142 0.872 0.2142
1708771544.1616 0.871 0.065 0.2189 0.875 0.2189
1708771544.1692 0.874 0.066 0.2204 0.878 0.2204
1708771544.1777 0.877 0.067 0.2173 0.882 0.2173
1708771544.1861 0.880 0.067 0.2127 0.885 0.2127
1708771544.1937 0.883 0.068 0.2127 0.888 0.2127
1708771544.2014 0.887 0.069 0.2142 0.891 0.2142
1708771544.2104 0.890 0.069 0.2158 0.895 0.2158
1708771544.2170 0.893 0.070 0.2111 0.898 0.2111
1708771544.2258 0.896 0.071 0.2080 0.901 0.2080
1708771544.2343 0.899 0.071 0.2096 0.904 0.2096
1708771544.2410 0.902 0.072 0.2111 0.907 0.2111
1708771544.2489 0.905 0.073 0.2096 0.910 0.2096
1708771544.2580 0.908 0.073 0.2080 0.914 0.2080
1708771544.2658 0.911 0.074 0.2080 0.916 0.2080
1708771544.2731 0.914 0.075 0.2049 0.920 0.2049
1708771544.2820 0.918 0.075 0.2049 0.923 0.2049
1708771544.2893 0.921 0.076 0.2049 0.926 0.2049
1708771544.2978 0.923 0.077 0.2018 0.929 0.2018
1708771544.3057 0.926 0.077 0.1971 0.932 0.1971
1708771544.3132 0.930 0.078 0.1956 0.935 0.1956
1708771544.3212 0.933 0.079 0.1987 0.939 0.1987
1708771544.3301 0.936 0.079 0.1987 0.942 0.1987
1708771544.3374 0.939 0.080 0.1956 0.945 0.1956
1708771544.3454 0.942 0.080 0.1925 0.948 0.1925
1708771544.3543 0.945 0.081 0.1940 0.951 0.1940
1708771544.3619 0.948 0.082 0.1940 0.954 0.1940
1708771544.3698 0.952 0.082 0.1925 0.958 0.1925
1708771544.3781 0.955 0.083 0.1863 0.961 0.1863
1708771544.3854 0.958 0.083 0.1847 0.964 0.1847
1708771544.3933 0.961 0.084 0.1878 0.967 0.1878
1708771544.4022 0.963 0.084 0.1894 0.970 0.1894
1708771544.4097 0.967 0.085 0.1878 0.973 0.1878
1708771544.4176 0.970 0.086 0.1832 0.977 0.1832
1708771544.4283 0.973 0.086 0.1785 0.980 0.1785
1708771544.4347 0.976 0.087 0.1785 0.983 0.1785
1708771544.4417 0.979 0.087 0.1801 0.986 0.1801
1708771544.4555 0.982 0.088 0.1785 0.989 0.1785
1708771544.4580 0.985 0.088 0.1754 0.992 0.1754
1708771544.4652 0.988 0.089 0.1723 0.995 0.1723
1708771544.4761 0.989 0.089 0.1707 0.996 0.1707
1708771544.4814 0.991 0.089 0.1739 0.998 0.1739
1708771544.4897 0.994 0.090 0.1770 1.001 0.1770
1708771544.4982 0.997 0.091 0.1739 1.004 0.1739
1708771544.5050 1.001 0.091 0.1676 1.007 0.1676
1708771544.5131 1.003 0.092 0.1661 1.010 0.1661
1708771544.5223 1.006 0.092 0.1707 1.013 0.1707
1708771544.5290 1.009 0.092 0.1723 1.016 0.1723
1708771544.5376 1.012 0.093 0.1676 1.019 0.1676
1708771544.5456 1.015 0.093 0.1630 1.022 0.1630
1708771544.5530 1.018 0.094 0.1630 1.025 0.1630
1708771544.5614 1.021 0.095 0.1676 1.028 0.1676
1708771544.5703 1.024 0.095 0.1645 1.031 0.1645
1708771544.5770 1.027 0.095 0.1583 1.034 0.1583
1708771544.5858 1.030 0.096 0.1583 1.037 0.1583
1708771544.5939 1.032 0.096 0.1630 1.040 0.1630
1708771544.6019 1.035 0.097 0.1630 1.043 0.1630
1708771544.6090 1.039 0.097 0.1599 1.046 0.1599
1708771544.6181 1.042 0.098 0.1537 1.050 0.1537
1708771544.6250 1.045 0.098 0.1521 1.052 0.1521
1708771544.6336 1.048 0.099 0.1552 1.055 0.1552
1708771544.6417 1.051 0.099 0.1552 1.059 0.1552
1708771544.6497 1.055 0.100 0.1521 1.062 0.1521
1708771544.6579 1.058 0.100 0.1490 1.066 0.1490
1708771544.6662 1.061 0.101 0.1506 1.068 0.1506
1708771544.6739 1.064 0.101 0.1537 1.071 0.1537
1708771544.6811 1.067 0.102 0.1521 1.075 0.1521
1708771544.6904 1.071 0.102 0.1459 1.078 0.1459
1708771544.6971 1.073 0.103 0.1444 1.081 0.1444
1708771544.7055 1.076 0.103 0.1444 1.084 0.1444
1708771544.7136 1.080 0.104 0.1459 1.087 0.1459
1708771544.7212 1.083 0.104 0.1459 1.091 0.1459
1708771544.7292 1.086 0.105 0.1428 1.094 0.1428
1708771544.7378 1.089 0.105 0.1382 1.097 0.1382
1708771544.7455 1.092 0.105 0.1382 1.100 0.1382
1708771544.7539 1.095 0.106 0.1413 1.103 0.1413
1708771544.7619 1.099 0.106 0.1397 1.107 0.1397
1708771544.7695 1.102 0.107 0.1350 1.110 0.1350
1708771544.7772 1.105 0.107 0.1335 1.113 0.1335
1708771544.7859 1.108 0.108 0.1350 1.116 0.1350
1708771544.7937 1.111 0.108 0.1366 1.120 0.1366
1708771544.8016 1.115 0.109 0.1366 1.123 0.1366
1708771544.8104 1.118 0.109 0.1304 1.126 0.1304
1708771544.8171 1.121 0.109 0.1288 1.129 0.1288
1708771544.8250 1.124 0.110 0.1288 1.132 0.1288
1708771544.8350 1.127 0.110 0.1335 1.135 0.1335
1708771544.8417 1.130 0.111 0.1350 1.138 0.1350
1708771544.8496 1.133 0.111 0.1304 1.142 0.1304
1708771544.8585 1.137 0.111 0.1273 1.145 0.1273
1708771544.8652 1.139 0.112 0.1273 1.148 0.1273
1708771544.8731 1.142 0.112 0.1304 1.151 0.1304
1708771544.8822 1.146 0.113 0.1304 1.154 0.1304
1708771544.8895 1.149 0.113 0.1242 1.158 0.1242
1708771544.8973 1.153 0.114 0.1195 1.161 0.1195
1708771544.9064 1.155 0.114 0.1211 1.164 0.1211
1708771544.9131 1.158 0.114 0.1288 1.167 0.1288
1708771544.9210 1.161 0.115 0.1288 1.170 0.1288
1708771544.9300 1.164 0.115 0.1211 1.173 0.1211
1708771544.9373 1.168 0.115 0.1149 1.176 0.1149
1708771544.9452 1.171 0.116 0.1180 1.180 0.1180
1708771544.9542 1.174 0.116 0.1242 1.183 0.1242
1708771544.9619 1.177 0.117 0.1242 1.186 0.1242
1708771544.9694 1.180 0.117 0.1195 1.189 0.1195
1708771544.9785 1.184 0.117 0.1149 1.193 0.1149
1708771544.9850 1.187 0.118 0.1180 1.196 0.1180
1708771544.9938 1.190 0.118 0.1242 1.199 0.1242
1708771545.0017 1.193 0.118 0.1242 1.201 0.1242
1708771545.0095 1.196 0.119 0.1211 1.204 0.1211
1708771545.0175 1.199 0.119 0.1164 1.208 0.1164
1708771545.0265 1.203 0.120 0.1164 1.212 0.1164
1708771545.0338 1.206 0.120 0.1195 1.215 0.1195
