% Encoder logfile
% 1 	Time (sec)
% 2,3 	enc left, right
% 4,5 	encoder change left, right
1708771541.7777 0 0 0 0
1708771541.7873 0 0 0 0
1708771541.7936 0 0 0 0
1708771541.8011 0 4294967295 0 -1
1708771541.8098 0 0 0 1
1708771541.8172 0 0 0 0
1708771541.8259 0 0 0 0
1708771541.8342 0 0 0 0
1708771541.8415 0 0 0 0
1708771541.8491 0 0 0 0
1708771541.8583 0 0 0 0
1708771541.8653 0 0 0 0
1708771541.8733 0 0 0 0
1708771541.8822 0 0 0 0
1708771541.8900 0 0 0 0
1708771541.8971 0 0 0 0
1708771541.9058 1 1 1 1
1708771541.9141 6 6 5 5
1708771541.9215 11 10 5 4
1708771541.9300 15 12 4 2
1708771541.9375 17 15 2 3
1708771541.9457 20 18 3 3
1708771541.9558 25 22 5 4
1708771541.9616 30 27 5 5
1708771541.9694 35 31 5 4
1708771541.9791 40 36 5 5
1708771541.9855 47 44 7 8
1708771541.9937 55 52 8 8
1708771542.0027 62 58 7 6
1708771542.0094 69 65 7 7
1708771542.0174 78 73 9 8
1708771542.0268 86 81 8 8
1708771542.0342 95 89 9 8
1708771542.0411 105 97 10 8
1708771542.0503 113 105 8 8
1708771542.0569 120 113 7 8
1708771542.0657 129 122 9 9
1708771542.0746 139 130 10 8
1708771542.0812 150 139 11 9
1708771542.0898 159 148 9 9
1708771542.0977 167 157 8 9
1708771542.1054 175 164 8 7
1708771542.1131 186 172 11 8
1708771542.1221 196 181 10 9
1708771542.1297 205 190 9 9
1708771542.1372 213 198 8 8
1708771542.1462 221 206 8 8
1708771542.1539 231 215 10 9
1708771542.1617 241 225 10 10
1708771542.1699 249 234 8 9
1708771542.1787 257 241 8 7
1708771542.1858 267 249 10 8
1708771542.1945 277 258 10 9
1708771542.2009 285 267 8 9
1708771542.2089 291 275 6 8
1708771542.2180 298 281 7 6
1708771542.2258 308 290 10 9
1708771542.2344 319 300 11 10
1708771542.2423 327 309 8 9
1708771542.2495 333 316 6 7
1708771542.2572 341 324 8 8
1708771542.2660 349 333 8 9
1708771542.2733 358 341 9 8
1708771542.2810 367 350 9 9
1708771542.2902 374 358 7 8
1708771542.2979 380 366 6 8
1708771542.3056 389 376 9 10
1708771542.3145 398 385 9 9
1708771542.3210 407 393 9 8
1708771542.3297 414 402 7 9
1708771542.3380 419 410 5 8
1708771542.3456 426 420 7 10
1708771542.3533 436 429 10 9
1708771542.3627 446 437 10 8
1708771542.3738 455 445 9 8
1708771542.3783 461 455 6 10
1708771542.3881 468 467 7 12
1708771542.3937 473 473 5 6
1708771542.4010 479 479 6 6
1708771542.4099 488 489 9 10
1708771542.4170 497 501 9 12
1708771542.4257 505 511 8 10
1708771542.4342 511 519 6 8
1708771542.4410 518 530 7 11
1708771542.4499 527 540 9 10
1708771542.4578 535 548 8 8
1708771542.4656 541 556 6 8
1708771542.4734 547 566 6 10
1708771542.4823 554 576 7 10
1708771542.4899 563 584 9 8
1708771542.4977 572 593 9 9
1708771542.5065 579 604 7 11
1708771542.5130 585 614 6 10
1708771542.5218 591 622 6 8
1708771542.5298 599 629 8 7
1708771542.5370 608 639 9 10
1708771542.5459 615 650 7 11
1708771542.5537 621 660 6 10
1708771542.5618 629 669 8 9
1708771542.5698 637 677 8 8
1708771542.5775 645 687 8 10
1708771542.5858 651 698 6 11
1708771542.5935 658 707 7 9
1708771542.6023 667 715 9 8
1708771542.6097 676 724 9 9
1708771542.6175 683 735 7 11
1708771542.6262 689 745 6 10
1708771542.6346 696 753 7 8
1708771542.6414 705 762 9 9
1708771542.6500 715 771 10 9
1708771542.6576 722 780 7 9
1708771542.6653 727 789 5 9
1708771542.6741 735 798 8 9
1708771542.6818 744 806 9 8
1708771542.6890 754 816 10 10
1708771542.6976 762 826 8 10
1708771542.7052 767 833 5 7
1708771542.7134 774 841 7 8
1708771542.7223 784 849 10 8
1708771542.7289 794 860 10 11
1708771542.7382 801 870 7 10
1708771542.7461 807 877 6 7
1708771542.7539 815 884 8 7
1708771542.7617 826 893 11 9
1708771542.7705 835 903 9 10
1708771542.7778 842 911 7 8
1708771542.7859 850 919 8 8
1708771542.7937 860 926 10 7
1708771542.8013 869 935 9 9
1708771542.8092 877 944 8 9
1708771542.8181 885 952 8 8
1708771542.8257 894 959 9 7
1708771542.8340 904 968 10 9
1708771542.8418 913 977 9 9
1708771542.8494 920 986 7 9
1708771542.8571 929 993 9 7
1708771542.8659 939 1000 10 7
1708771542.8733 948 1008 9 8
1708771542.8811 956 1017 8 9
1708771542.8906 965 1025 9 8
1708771542.8971 975 1032 10 7
1708771542.9050 985 1040 10 8
1708771542.9138 992 1047 7 7
1708771542.9212 999 1054 7 7
1708771542.9289 1008 1063 9 9
1708771542.9384 1019 1073 11 10
1708771542.9450 1029 1081 10 8
1708771542.9532 1036 1087 7 6
1708771542.9621 1043 1094 7 7
1708771542.9695 1052 1103 9 9
1708771542.9773 1063 1113 11 10
1708771542.9856 1072 1121 9 8
1708771542.9932 1079 1128 7 7
1708771543.0009 1087 1135 8 7
1708771543.0095 1097 1145 10 10
1708771543.0172 1107 1154 10 9
1708771543.0251 1116 1161 9 7
1708771543.0346 1123 1168 7 7
1708771543.0411 1131 1176 8 8
1708771543.0489 1141 1185 10 9
1708771543.0586 1149 1192 8 7
1708771543.0651 1156 1198 7 6
1708771543.0739 1165 1207 9 9
1708771543.0817 1175 1217 10 10
1708771543.0899 1185 1225 10 8
1708771543.0975 1192 1232 7 7
1708771543.1063 1199 1241 7 9
1708771543.1139 1208 1250 9 9
1708771543.1217 1218 1258 10 8
1708771543.1305 1227 1265 9 7
1708771543.1377 1234 1274 7 9
1708771543.1452 1242 1284 8 10
1708771543.1540 1251 1292 9 8
1708771543.1618 1261 1298 10 6
1708771543.1695 1271 1306 10 8
1708771543.1783 1279 1317 8 11
1708771543.1855 1285 1326 6 9
1708771543.1929 1293 1334 8 8
1708771543.2021 1303 1340 10 6
1708771543.2098 1313 1348 10 8
1708771543.2177 1321 1358 8 10
1708771543.2266 1327 1367 6 9
1708771543.2335 1336 1375 9 8
1708771543.2413 1346 1383 10 8
1708771543.2501 1355 1391 9 8
1708771543.2577 1361 1400 6 9
1708771543.2656 1369 1409 8 9
1708771543.2744 1379 1417 10 8
1708771543.2819 1390 1424 11 7
1708771543.2894 1398 1434 8 10
1708771543.2982 1404 1443 6 9
1708771543.3058 1411 1450 7 7
1708771543.3136 1420 1459 9 9
1708771543.3224 1430 1468 10 9
1708771543.3298 1439 1477 9 9
1708771543.3371 1446 1485 7 8
1708771543.3460 1452 1493 6 8
1708771543.3536 1461 1502 9 9
1708771543.3613 1471 1512 10 10
1708771543.3699 1480 1520 9 8
1708771543.3776 1487 1527 7 7
1708771543.3849 1494 1536 7 9
1708771543.3940 1503 1546 9 10
1708771543.4017 1513 1555 10 9
1708771543.4094 1523 1563 10 8
1708771543.4180 1530 1570 7 7
1708771543.4256 1536 1578 6 8
1708771543.4340 1544 1588 8 10
1708771543.4418 1554 1597 10 9
1708771543.4494 1564 1605 10 8
1708771543.4580 1572 1613 8 8
1708771543.4662 1578 1621 6 8
1708771543.4729 1586 1631 8 10
1708771543.4817 1596 1642 10 11
1708771543.4901 1604 1649 8 7
1708771543.4977 1612 1655 8 6
1708771543.5053 1620 1663 8 8
1708771543.5141 1629 1674 9 11
1708771543.5217 1638 1684 9 10
1708771543.5295 1647 1691 9 7
1708771543.5379 1654 1698 7 7
1708771543.5455 1661 1706 7 8
1708771543.5531 1669 1715 8 9
1708771543.5621 1679 1724 10 9
1708771543.5698 1688 1732 9 8
1708771543.5775 1696 1740 8 8
1708771543.5859 1703 1750 7 10
1708771543.5933 1710 1759 7 9
1708771543.6011 1720 1767 10 8
1708771543.6100 1730 1774 10 7
1708771543.6176 1737 1783 7 9
1708771543.6254 1743 1794 6 11
1708771543.6348 1752 1802 9 8
1708771543.6417 1762 1809 10 7
1708771543.6495 1771 1818 9 9
1708771543.6584 1778 1829 7 11
1708771543.6649 1783 1838 5 9
1708771543.6738 1790 1846 7 8
1708771543.6816 1800 1854 10 8
1708771543.6896 1810 1863 10 9
1708771543.6973 1817 1874 7 11
1708771543.7061 1822 1884 5 10
1708771543.7137 1830 1892 8 8
1708771543.7214 1839 1901 9 9
1708771543.7304 1847 1912 8 11
1708771543.7386 1853 1922 6 10
1708771543.7455 1860 1931 7 9
1708771543.7544 1869 1941 9 10
1708771543.7610 1877 1951 8 10
1708771543.7699 1882 1960 5 9
1708771543.7781 1887 1969 5 9
1708771543.7853 1896 1978 9 9
1708771543.7931 1906 1989 10 11
1708771543.8020 1913 1997 7 8
1708771543.8097 1918 2006 5 9
1708771543.8182 1925 2016 7 10
1708771543.8260 1934 2027 9 11
1708771543.8343 1943 2035 9 8
1708771543.8410 1950 2043 7 8
1708771543.8499 1955 2053 5 10
1708771543.8576 1960 2064 5 11
1708771543.8651 1969 2075 9 11
1708771543.8739 1978 2083 9 8
1708771543.8815 1986 2090 8 7
1708771543.8945 1991 2100 5 10
1708771543.8979 1997 2112 6 12
1708771543.9056 2003 2122 6 10
1708771543.9134 2009 2125 6 3
1708771543.9223 2016 2130 7 5
1708771543.9300 2024 2140 8 10
1708771543.9373 2033 2152 9 12
1708771543.9462 2039 2162 6 10
1708771543.9536 2044 2168 5 6
1708771543.9614 2051 2176 7 8
1708771543.9703 2059 2186 8 10
1708771543.9779 2067 2196 8 10
1708771543.9853 2074 2204 7 8
1708771543.9943 2080 2211 6 7
1708771544.0017 2087 2219 7 8
1708771544.0091 2095 2230 8 11
1708771544.0180 2103 2240 8 10
1708771544.0257 2110 2247 7 7
1708771544.0341 2118 2254 8 7
1708771544.0418 2126 2264 8 10
1708771544.0493 2134 2274 8 10
1708771544.0570 2142 2282 8 8
1708771544.0659 2151 2289 9 7
1708771544.0736 2159 2297 8 8
1708771544.0814 2167 2307 8 10
1708771544.0896 2175 2317 8 10
1708771544.0972 2184 2325 9 8
1708771544.1049 2193 2332 9 7
1708771544.1138 2201 2340 8 8
1708771544.1215 2208 2350 7 10
1708771544.1296 2217 2360 9 10
1708771544.1384 2227 2368 10 8
1708771544.1450 2237 2375 10 7
1708771544.1538 2245 2382 8 7
1708771544.1616 2251 2391 6 9
1708771544.1692 2259 2400 8 9
1708771544.1777 2269 2408 10 8
1708771544.1861 2279 2415 10 7
1708771544.1937 2287 2423 8 8
1708771544.2014 2295 2432 8 9
1708771544.2104 2303 2441 8 9
1708771544.2170 2313 2448 10 7
1708771544.2258 2323 2456 10 8
1708771544.2343 2329 2463 6 7
1708771544.2410 2337 2472 8 9
1708771544.2489 2347 2481 10 9
1708771544.2580 2356 2489 9 8
1708771544.2658 2363 2496 7 7
1708771544.2731 2373 2504 10 8
1708771544.2820 2382 2513 9 9
1708771544.2893 2390 2521 8 8
1708771544.2978 2399 2528 9 7
1708771544.3057 2408 2534 9 6
1708771544.3132 2418 2543 10 9
1708771544.3212 2426 2553 8 10
1708771544.3301 2434 2561 8 8
1708771544.3374 2443 2568 9 7
1708771544.3454 2453 2576 10 8
1708771544.3543 2461 2585 8 9
1708771544.3619 2469 2593 8 8
1708771544.3698 2478 2601 9 8
1708771544.3781 2488 2607 10 6
1708771544.3854 2497 2615 9 8
1708771544.3933 2504 2624 7 9
1708771544.4022 2511 2632 7 8
1708771544.4097 2520 2640 9 8
1708771544.4176 2531 2648 11 8
1708771544.4283 2541 2655 10 7
1708771544.4347 2549 2663 8 8
1708771544.4417 2557 2672 8 9
1708771544.4555 2565 2679 8 7
1708771544.4580 2574 2686 9 7
1708771544.4652 2583 2693 9 7
1708771544.4761 2587 2696 4 3
1708771544.4814 2590 2701 3 5
1708771544.4897 2597 2710 7 9
1708771544.4982 2607 2718 10 8
1708771544.5050 2618 2725 11 7
1708771544.5131 2626 2732 8 7
1708771544.5223 2631 2740 5 8
1708771544.5290 2638 2748 7 8
1708771544.5376 2648 2755 10 7
1708771544.5456 2657 2761 9 6
1708771544.5530 2665 2769 8 8
1708771544.5614 2672 2779 7 10
1708771544.5703 2681 2786 9 7
1708771544.5770 2691 2792 10 6
1708771544.5858 2699 2800 8 8
1708771544.5939 2705 2809 6 9
1708771544.6019 2713 2817 8 8
1708771544.6090 2723 2825 10 8
1708771544.6181 2734 2832 11 7
1708771544.6250 2742 2839 8 7
1708771544.6336 2749 2848 7 9
1708771544.6417 2758 2857 9 9
1708771544.6497 2768 2865 10 8
1708771544.6579 2778 2873 10 8
1708771544.6662 2785 2881 7 8
1708771544.6739 2792 2890 7 9
1708771544.6811 2802 2899 10 9
1708771544.6904 2813 2906 11 7
1708771544.6971 2821 2913 8 7
1708771544.7055 2829 2921 8 8
1708771544.7136 2837 2930 8 9
1708771544.7212 2846 2939 9 9
1708771544.7292 2856 2947 10 8
1708771544.7378 2865 2953 9 6
1708771544.7455 2873 2961 8 8
1708771544.7539 2881 2971 8 10
1708771544.7619 2891 2980 10 9
1708771544.7695 2901 2987 10 7
1708771544.7772 2909 2994 8 7
1708771544.7859 2917 3003 8 9
1708771544.7937 2925 3012 8 9
1708771544.8016 2934 3021 9 9
1708771544.8104 2945 3028 11 7
1708771544.8171 2953 3035 8 7
1708771544.8250 2961 3043 8 8
1708771544.8350 2967 3052 6 9
1708771544.8417 2975 3061 8 9
1708771544.8496 2986 3069 11 8
1708771544.8585 2996 3077 10 8
1708771544.8652 3003 3084 7 7
1708771544.8731 3010 3093 7 9
1708771544.8822 3019 3102 9 9
1708771544.8895 3030 3109 11 7
1708771544.8973 3041 3117 11 8
1708771544.9064 3048 3125 7 8
1708771544.9131 3053 3135 5 10
1708771544.9210 3061 3143 8 8
1708771544.9300 3072 3149 11 6
1708771544.9373 3083 3156 11 7
1708771544.9452 3091 3166 8 10
1708771544.9542 3097 3176 6 10
1708771544.9619 3105 3184 8 8
1708771544.9694 3115 3191 10 7
1708771544.9785 3126 3199 11 8
1708771544.9850 3134 3209 8 10
1708771544.9938 3140 3219 6 10
1708771545.0017 3146 3225 6 6
1708771545.0095 3155 3232 9 7
1708771545.0175 3167 3241 12 9
1708771545.0265 3177 3251 10 10
1708771545.0338 3183 3259 6 8
1708771545.0417 3190 3267 7 8
1708771545.0496 3199 3274 9 7
1708771545.0574 3210 3283 11 9
1708771545.0654 3219 3293 9 10
1708771545.0743 3225 3301 6 8
1708771545.0810 3233 3308 8 7
1708771545.0897 3242 3317 9 9
1708771545.0976 3251 3326 9 9
1708771545.1054 3259 3334 8 8
1708771545.1133 3268 3341 9 7
1708771545.1224 3277 3349 9 8
1708771545.1300 3284 3360 7 11
1708771545.1375 3293 3369 9 9
1708771545.1464 3303 3375 10 6
1708771545.1532 3311 3382 8 7
1708771545.1612 3318 3391 7 9
1708771545.1705 3325 3401 7 10
1708771545.1771 3334 3409 9 8
1708771545.1857 3344 3417 10 8
1708771545.1937 3352 3424 8 7
1708771545.2013 3359 3433 7 9
1708771545.2093 3367 3443 8 10
1708771545.2183 3376 3452 9 9
1708771545.2249 3386 3460 10 8
1708771545.2346 3396 3468 10 8
1708771545.2426 3402 3476 6 8
1708771545.2492 3410 3486 8 10
1708771545.2581 3419 3495 9 9
1708771545.2661 3427 3501 8 6
1708771545.2735 3435 3509 8 8
1708771545.2813 3445 3519 10 10
1708771545.2900 3454 3528 9 9
1708771545.2969 3460 3536 6 8
1708771545.3059 3468 3543 8 7
1708771545.3140 3478 3551 10 8
1708771545.3218 3488 3560 10 9
1708771545.3299 3496 3570 8 10
1708771545.3384 3503 3579 7 9
1708771545.3451 3511 3586 8 7
1708771545.3530 3521 3593 10 7
1708771545.3621 3529 3602 8 9
1708771545.3699 3536 3613 7 11
1708771545.3778 3545 3622 9 9
1708771545.3863 3554 3629 9 7
1708771545.3939 3563 3636 9 7
1708771545.4017 3571 3644 8 8
1708771545.4096 3580 3655 9 11
1708771545.4175 3589 3664 9 9
1708771545.4255 3597 3670 8 6
1708771545.4380 3604 3677 7 7
1708771545.4413 3613 3686 9 9
1708771545.4494 3622 3697 9 11
1708771545.4585 3626 3702 4 5
1708771545.4651 3632 3706 6 4
1708771545.4729 3642 3715 10 9
1708771545.4819 3651 3726 9 11
1708771545.4891 3658 3735 7 9
1708771545.4975 3665 3742 7 7
1708771545.5067 3674 3748 9 6
1708771545.5134 3683 3756 9 8
1708771545.5215 3692 3766 9 10
1708771545.5306 3699 3774 7 8
1708771545.5379 3705 3780 6 6
1708771545.5454 3713 3788 8 8
1708771545.5545 3723 3797 10 9
1708771545.5612 3732 3805 9 8
1708771545.5692 3739 3814 7 9
1708771545.5780 3745 3821 6 7
1708771545.5854 3753 3828 8 7
1708771545.5934 3762 3837 9 9
1708771545.6024 3771 3846 9 9
1708771545.6091 3778 3854 7 8
1708771545.6180 3787 3862 9 8
1708771545.6259 3796 3870 9 8
1708771545.6345 3805 3879 9 9
1708771545.6414 3813 3888 8 9
1708771545.6504 3822 3896 9 8
1708771545.6570 3830 3903 8 7
1708771545.6658 3838 3912 8 9
1708771545.6737 3845 3921 7 9
1708771545.6815 3854 3931 9 10
1708771545.6891 3864 3939 10 8
1708771545.6981 3873 3946 9 7
1708771545.7059 3879 3954 6 8
1708771545.7137 3887 3964 8 10
1708771545.7216 3897 3974 10 10
1708771545.7293 3907 3982 10 8
1708771545.7370 3915 3989 8 7
1708771545.7461 3922 3997 7 8
1708771545.7537 3930 4007 8 10
1708771545.7617 3940 4018 10 11
1708771545.7697 3949 4026 9 8
1708771545.7772 3957 4032 8 6
1708771545.7856 3963 4040 6 8
1708771545.7947 3971 4050 8 10
1708771545.8012 3982 4060 11 10
1708771545.8094 3992 4068 10 8
1708771545.8186 3998 4074 6 6
1708771545.8252 4003 4082 5 8
1708771545.8340 4010 4092 7 10
1708771545.8420 4020 4101 10 9
1708771545.8496 4031 4110 11 9
1708771545.8576 4039 4117 8 7
1708771545.8666 4045 4126 6 9
1708771545.8732 4051 4136 6 10
1708771545.8816 4060 4145 9 9
1708771545.8903 4071 4152 11 7
1708771545.8970 4078 4161 7 9
1708771545.9050 4084 4171 6 10
1708771545.9140 4091 4180 7 9
1708771545.9217 4099 4188 8 8
1708771545.9297 4109 4198 10 10
1708771545.9382 4117 4208 8 10
1708771545.9458 4123 4217 6 9
1708771545.9538 4130 4226 7 9
1708771545.9617 4139 4236 9 10
1708771545.9695 4149 4245 10 9
1708771545.9773 4156 4253 7 8
1708771545.9859 4161 4262 5 9
1708771545.9935 4168 4273 7 11
1708771546.0014 4178 4282 10 9
1708771546.0103 4186 4290 8 8
1708771546.0170 4192 4299 6 9
1708771546.0259 4199 4309 7 10
1708771546.0345 4207 4318 8 9
1708771546.0412 4217 4326 10 8
1708771546.0491 4224 4336 7 10
1708771546.0581 4230 4345 6 9
1708771546.0651 4237 4353 7 8
1708771546.0730 4246 4364 9 11
1708771546.0821 4253 4374 7 10
1708771546.0895 4259 4383 6 9
1708771546.0974 4267 4392 8 9
1708771546.1064 4276 4401 9 9
1708771546.1140 4284 4411 8 10
1708771546.1211 4290 4421 6 10
1708771546.1301 4296 4429 6 8
1708771546.1374 4305 4436 9 7
1708771546.1459 4315 4446 10 10
1708771546.1540 4323 4457 8 11
1708771546.1617 4329 4467 6 10
1708771546.1697 4336 4474 7 7
1708771546.1777 4344 4482 8 8
1708771546.1849 4352 4492 8 10
1708771546.1939 4360 4503 8 11
1708771546.2019 4366 4512 6 9
1708771546.2094 4374 4520 8 8
1708771546.2173 4383 4530 9 10
1708771546.2264 4390 4540 7 10
1708771546.2336 4397 4548 7 8
1708771546.2416 4405 4557 8 9
1708771546.2504 4414 4567 9 10
1708771546.2571 4421 4577 7 10
1708771546.2650 4428 4585 7 8
1708771546.2737 4435 4593 7 8
1708771546.2814 4443 4602 8 9
1708771546.2890 4453 4612 10 10
1708771546.2978 4460 4622 7 10
1708771546.3056 4466 4630 6 8
1708771546.3136 4474 4638 8 8
1708771546.3231 4484 4648 10 10
1708771546.3298 4492 4657 8 9
1708771546.3374 4500 4667 8 10
1708771546.3465 4507 4675 7 8
1708771546.3530 4516 4683 9 8
1708771546.3610 4525 4691 9 8
1708771546.3700 4532 4700 7 9
1708771546.3779 4538 4710 6 10
1708771546.3853 4547 4719 9 9
1708771546.3936 4557 4728 10 9
1708771546.4014 4566 4735 9 7
1708771546.4094 4573 4743 7 8
1708771546.4184 4580 4753 7 10
1708771546.4250 4589 4762 9 9
1708771546.4345 4599 4769 10 7
1708771546.4426 4606 4776 7 7
1708771546.4493 4614 4785 8 9
1708771546.4576 4624 4795 10 10
1708771546.4666 4632 4804 8 9
1708771546.4731 4639 4811 7 7
1708771546.4812 4647 4818 8 7
1708771546.4900 4657 4826 10 8
1708771546.4977 4667 4835 10 9
1708771546.5057 4675 4845 8 10
1708771546.5138 4683 4853 8 8
1708771546.5214 4691 4859 8 6
1708771546.5294 4702 4867 11 8
1708771546.5381 4711 4876 9 9
1708771546.5459 4718 4883 7 7
1708771546.5530 4726 4891 8 8
1708771546.5620 4736 4900 10 9
1708771546.5695 4745 4909 9 9
1708771546.5775 4752 4917 7 8
1708771546.5865 4760 4924 8 7
1708771546.5932 4769 4933 9 9
1708771546.6011 4779 4942 10 9
1708771546.6099 4788 4951 9 9
1708771546.6177 4795 4958 7 7
1708771546.6253 4803 4966 8 8
1708771546.6350 4813 4975 10 9
1708771546.6420 4822 4984 9 9
1708771546.6491 4832 4993 10 9
1708771546.6579 4839 5001 7 8
1708771546.6657 4845 5008 6 7
1708771546.6737 4853 5016 8 8
1708771546.6817 4863 5025 10 9
1708771546.6892 4873 5035 10 10
1708771546.6978 4881 5043 8 8
1708771546.7061 4888 5050 7 7
1708771546.7129 4896 5058 8 8
1708771546.7220 4906 5068 10 10
1708771546.7299 4914 5075 8 7
1708771546.7373 4921 5083 7 8
1708771546.7451 4930 5092 9 9
1708771546.7545 4939 5100 9 8
1708771546.7617 4947 5107 8 7
1708771546.7696 4956 5117 9 10
1708771546.7778 4964 5126 8 9
1708771546.7854 4971 5134 7 8
1708771546.7934 4978 5143 7 9
1708771546.8025 4988 5152 10 9
1708771546.8092 4998 5161 10 9
1708771546.8174 5007 5170 9 9
1708771546.8265 5012 5178 5 8
1708771546.8343 5019 5187 7 9
1708771546.8415 5028 5197 9 10
1708771546.8507 5038 5205 10 8
1708771546.8573 5046 5213 8 8
1708771546.8654 5052 5222 6 9
1708771546.8745 5057 5232 5 10
1708771546.8810 5066 5242 9 10
1708771546.8897 5076 5251 10 9
1708771546.8977 5083 5259 7 8
1708771546.9055 5089 5267 6 8
1708771546.9134 5096 5280 7 13
1708771546.9224 5105 5290 9 10
1708771546.9300 5115 5297 10 7
1708771546.9376 5123 5304 8 7
1708771546.9466 5129 5314 6 10
1708771546.9532 5136 5325 7 11
1708771546.9613 5145 5333 9 8
1708771546.9701 5153 5340 8 7
1708771546.9778 5159 5348 6 8
1708771546.9855 5167 5359 8 11
1708771546.9946 5176 5370 9 11
1708771547.0013 5183 5378 7 8
1708771547.0093 5190 5386 7 8
1708771547.0183 5196 5396 6 10
1708771547.0250 5205 5407 9 11
1708771547.0336 5214 5416 9 9
1708771547.0416 5220 5423 6 7
1708771547.0493 5226 5432 6 9
1708771547.0582 5234 5443 8 11
1708771547.0661 5243 5454 9 11
1708771547.0739 5251 5462 8 8
1708771547.0819 5257 5470 6 8
1708771547.0896 5262 5480 5 10
1708771547.0973 5269 5491 7 11
