% Pose without folding and reset (log_20240212_153601.716/log_pose_abs.txt)
% 1 	Time (sec)
% 2,3 	Position x,y (m)
% 4 	heading (rad)
% 5 	Driven distance (m) - signed
% 6 	Turned angle (rad) - signed
1707748562.2894 0.000 0.000 0.0000 0.000 0.0000
1707748562.2969 0.000 0.000 0.0000 0.000 0.0000
1707748562.3046 0.000 0.000 0.0000 0.000 0.0000
1707748562.3123 0.000 0.000 0.0000 0.000 0.0000
1707748562.3203 0.000 0.000 0.0000 0.000 0.0000
1707748562.3285 0.000 0.000 0.0000 0.000 0.0000
1707748562.3363 0.000 0.000 0.0000 0.000 0.0000
1707748562.3450 0.000 0.000 0.0000 0.000 0.0000
1707748562.3531 0.000 0.000 0.0000 0.000 0.0000
1707748562.3607 0.000 0.000 0.0000 0.000 0.0000
1707748562.3691 0.000 0.000 0.0000 0.000 0.0000
1707748562.3763 0.000 0.000 0.0000 0.000 0.0000
1707748562.3843 0.000 0.000 0.0000 0.000 0.0000
1707748562.3929 0.000 0.000 0.0000 0.000 0.0000
1707748562.4009 0.000 0.000 0.0000 0.000 0.0000
1707748562.4091 0.000 0.000 0.0000 0.000 0.0000
1707748562.4160 0.000 0.000 0.0000 0.000 0.0000
1707748562.4242 0.000 0.000 0.0031 0.000 0.0031
1707748562.4326 0.001 0.000 0.0047 0.001 0.0047
1707748562.4401 0.002 0.000 0.0047 0.002 0.0047
1707748562.4480 0.002 0.000 0.0047 0.002 0.0047
1707748562.4566 0.002 0.000 0.0047 0.002 0.0047
1707748562.4659 0.003 0.000 0.0031 0.003 0.0031
1707748562.4740 0.004 0.000 0.0047 0.004 0.0047
1707748562.4802 0.005 0.000 0.0031 0.005 0.0031
1707748562.4973 0.006 0.000 0.0047 0.006 0.0047
1707748562.5001 0.007 0.000 0.0031 0.007 0.0031
1707748562.5111 0.008 0.000 0.0031 0.008 0.0031
1707748562.5148 0.009 0.000 0.0016 0.009 0.0016
1707748562.5221 0.010 0.000 0.0031 0.010 0.0031
1707748562.5296 0.012 0.000 0.0031 0.012 0.0031
1707748562.5376 0.013 0.000 0.0047 0.013 0.0047
1707748562.5451 0.015 0.000 0.0016 0.015 0.0016
1707748562.5534 0.015 0.000 -0.0000 0.015 -0.0000
1707748562.5617 0.017 0.000 0.0016 0.017 0.0016
1707748562.5686 0.018 0.000 0.0031 0.018 0.0031
1707748562.5774 0.020 0.000 -0.0000 0.020 -0.0000
1707748562.5853 0.021 0.000 -0.0000 0.021 -0.0000
1707748562.5929 0.022 0.000 0.0047 0.022 0.0047
1707748562.6011 0.024 0.000 0.0062 0.024 0.0062
1707748562.6093 0.026 0.000 0.0031 0.026 0.0031
1707748562.6172 0.027 0.000 -0.0016 0.027 -0.0016
1707748562.6245 0.029 0.000 0.0016 0.029 0.0016
1707748562.6337 0.030 0.000 0.0047 0.030 0.0047
1707748562.6406 0.032 0.000 0.0031 0.032 0.0031
1707748562.6486 0.034 0.000 0.0016 0.034 0.0016
1707748562.6574 0.035 0.000 -0.0000 0.035 -0.0000
1707748562.6649 0.036 0.000 0.0016 0.036 0.0016
1707748562.6726 0.038 0.000 0.0031 0.038 0.0031
1707748562.6815 0.040 0.000 0.0016 0.040 0.0016
1707748562.6891 0.042 0.000 -0.0000 0.042 -0.0000
1707748562.6966 0.043 0.000 -0.0016 0.043 -0.0016
1707748562.7056 0.044 0.000 0.0016 0.044 0.0016
1707748562.7130 0.046 0.000 0.0031 0.046 0.0031
1707748562.7208 0.048 0.000 0.0031 0.048 0.0031
1707748562.7297 0.050 0.000 -0.0000 0.050 -0.0000
1707748562.7373 0.051 0.000 -0.0016 0.051 -0.0016
1707748562.7453 0.052 0.000 -0.0000 0.052 -0.0000
1707748562.7537 0.054 0.000 0.0031 0.054 0.0031
1707748562.7613 0.056 0.000 0.0031 0.056 0.0031
1707748562.7691 0.058 0.000 0.0016 0.058 0.0016
1707748562.7777 0.059 0.000 -0.0000 0.059 -0.0000
1707748562.7853 0.060 0.000 0.0031 0.060 0.0031
1707748562.7930 0.062 0.000 0.0047 0.062 0.0047
1707748562.8013 0.064 0.000 0.0016 0.064 0.0016
1707748562.8089 0.066 0.000 -0.0016 0.066 -0.0016
1707748562.8167 0.067 0.000 -0.0016 0.067 -0.0016
1707748562.8263 0.068 0.000 0.0031 0.068 0.0031
1707748562.8334 0.070 0.000 0.0047 0.070 0.0047
1707748562.8414 0.072 0.000 0.0016 0.072 0.0016
1707748562.8497 0.074 0.000 -0.0000 0.074 -0.0000
1707748562.8573 0.075 0.000 -0.0000 0.075 -0.0000
1707748562.8651 0.076 0.000 0.0031 0.076 0.0031
1707748562.8740 0.078 0.000 0.0031 0.078 0.0031
1707748562.8806 0.080 0.000 -0.0000 0.080 -0.0000
1707748562.8903 0.082 0.000 -0.0016 0.082 -0.0016
1707748562.8977 0.083 0.000 -0.0016 0.083 -0.0016
1707748562.9053 0.084 0.000 -0.0000 0.084 -0.0000
1707748562.9132 0.086 0.000 0.0016 0.086 0.0016
1707748562.9220 0.088 0.000 -0.0000 0.088 -0.0000
1707748562.9286 0.090 0.000 -0.0016 0.090 -0.0016
1707748562.9372 0.091 0.000 -0.0000 0.091 -0.0000
1707748562.9456 0.092 0.000 -0.0000 0.092 -0.0000
1707748562.9527 0.094 0.000 -0.0000 0.094 -0.0000
1707748562.9660 0.096 0.000 -0.0000 0.096 -0.0000
1707748562.9732 0.098 0.000 -0.0016 0.098 -0.0016
1707748562.9777 0.099 0.000 -0.0000 0.099 -0.0000
1707748562.9876 0.100 0.000 0.0016 0.100 0.0016
1707748562.9956 0.101 0.000 -0.0000 0.101 -0.0000
1707748563.0006 0.103 0.000 -0.0031 0.103 -0.0031
1707748563.0085 0.104 0.000 -0.0031 0.104 -0.0031
1707748563.0182 0.106 0.000 -0.0016 0.106 -0.0016
1707748563.0247 0.107 0.000 -0.0000 0.107 -0.0000
1707748563.0328 0.108 0.000 0.0016 0.108 0.0016
1707748563.0483 0.110 0.000 0.0016 0.110 0.0016
1707748563.0544 0.112 0.000 -0.0016 0.112 -0.0016
1707748563.0569 0.114 0.000 -0.0047 0.114 -0.0047
1707748563.0657 0.116 0.000 -0.0016 0.116 -0.0016
1707748563.0725 0.115 0.000 0.0047 0.115 0.0047
1707748563.0805 0.115 0.000 0.0093 0.115 0.0093
1707748563.0911 0.117 0.000 0.0047 0.117 0.0047
1707748563.1035 0.120 0.000 0.0016 0.120 0.0016
1707748563.1058 0.122 0.000 0.0031 0.122 0.0031
1707748563.1153 0.124 0.000 0.0047 0.124 0.0047
1707748563.1233 0.123 0.000 0.0031 0.123 0.0031
1707748563.1286 0.123 0.000 -0.0000 0.123 -0.0000
1707748563.1385 0.125 0.000 -0.0000 0.125 -0.0000
1707748563.1448 0.127 0.000 0.0016 0.127 0.0016
1707748563.1528 0.129 0.000 0.0031 0.129 0.0031
1707748563.1613 0.129 0.000 0.0031 0.129 0.0031
1707748563.1691 0.130 0.000 -0.0000 0.130 -0.0000
1707748563.1765 0.132 0.000 0.0016 0.132 0.0016
1707748563.1857 0.134 0.000 0.0047 0.134 0.0047
1707748563.1924 0.136 0.000 0.0062 0.136 0.0062
1707748563.2012 0.137 0.000 0.0047 0.137 0.0047
1707748563.2091 0.137 0.000 0.0062 0.137 0.0062
1707748563.2260 0.141 0.000 0.0031 0.141 0.0031
1707748563.2343 0.144 0.000 0.0031 0.144 0.0031
1707748563.2411 0.145 0.000 0.0031 0.145 0.0031
1707748563.2503 0.146 0.000 0.0031 0.146 0.0031
1707748563.2590 0.147 0.000 0.0031 0.147 0.0031
1707748563.2647 0.149 0.000 0.0047 0.149 0.0047
1707748563.2727 0.151 0.000 0.0031 0.151 0.0031
1707748563.2819 0.152 0.000 0.0031 0.152 0.0031
1707748563.2886 0.153 0.000 0.0047 0.153 0.0047
1707748563.2973 0.154 0.000 0.0047 0.154 0.0047
1707748563.3053 0.157 0.000 0.0016 0.157 0.0016
1707748563.3130 0.159 0.000 -0.0000 0.159 -0.0000
1707748563.3210 0.160 0.000 -0.0000 0.160 -0.0000
1707748563.3300 0.160 0.000 0.0016 0.160 0.0016
1707748563.3367 0.162 0.000 0.0031 0.162 0.0031
1707748563.3451 0.164 0.000 0.0031 0.164 0.0031
1707748563.3542 0.166 0.000 0.0016 0.166 0.0016
1707748563.3611 0.167 0.000 -0.0016 0.167 -0.0016
1707748563.3692 0.168 0.000 0.0016 0.168 0.0016
1707748563.3778 0.170 0.000 0.0047 0.170 0.0047
1707748563.3849 0.172 0.000 0.0031 0.172 0.0031
1707748563.3929 0.174 0.000 -0.0031 0.174 -0.0031
1707748563.4017 0.175 0.000 -0.0047 0.175 -0.0047
1707748563.4085 0.176 0.000 -0.0016 0.176 -0.0016
1707748563.4175 0.178 0.000 0.0031 0.178 0.0031
1707748563.4255 0.180 0.000 -0.0000 0.180 -0.0000
1707748563.4331 0.182 0.000 -0.0047 0.182 -0.0047
1707748563.4411 0.183 0.000 -0.0047 0.183 -0.0047
1707748563.4497 0.184 0.000 -0.0000 0.184 -0.0000
1707748563.4574 0.186 0.000 0.0031 0.186 0.0031
1707748563.4654 0.188 0.000 -0.0000 0.188 -0.0000
1707748563.4734 0.190 0.000 -0.0047 0.190 -0.0047
1707748563.4817 0.191 0.000 -0.0031 0.191 -0.0031
1707748563.4895 0.192 0.000 0.0016 0.192 0.0016
1707748563.4971 0.194 0.000 0.0047 0.194 0.0047
1707748563.5049 0.196 0.000 -0.0000 0.196 -0.0000
1707748563.5129 0.197 0.000 -0.0047 0.197 -0.0047
1707748563.5218 0.199 0.000 -0.0047 0.199 -0.0047
1707748563.5285 0.200 0.000 0.0016 0.200 0.0016
1707748563.5365 0.202 0.000 0.0047 0.202 0.0047
1707748563.5462 0.204 0.000 0.0016 0.204 0.0016
1707748563.5528 0.205 0.000 -0.0047 0.205 -0.0047
1707748563.5610 0.207 0.000 -0.0062 0.207 -0.0062
1707748563.5700 0.209 0.000 -0.0016 0.209 -0.0016
1707748563.5767 0.210 0.000 0.0031 0.210 0.0031
1707748563.5847 0.212 0.000 0.0031 0.212 0.0031
1707748563.5938 0.213 0.000 -0.0031 0.213 -0.0031
1707748563.6012 0.215 0.000 -0.0062 0.215 -0.0062
1707748563.6100 0.217 0.000 -0.0031 0.217 -0.0031
1707748563.6195 0.218 0.000 0.0016 0.218 0.0016
1707748563.6252 0.219 0.000 0.0062 0.219 0.0062
1707748563.6334 0.221 0.000 0.0047 0.221 0.0047
1707748563.6414 0.223 0.000 -0.0062 0.223 -0.0062
1707748563.6487 0.224 0.000 -0.0078 0.224 -0.0078
1707748563.6566 0.226 0.000 -0.0000 0.226 -0.0000
1707748563.6656 0.227 0.000 0.0047 0.227 0.0047
1707748563.6733 0.229 0.000 0.0031 0.229 0.0031
1707748563.6804 0.230 0.000 -0.0031 0.230 -0.0031
1707748563.6899 0.232 0.000 -0.0047 0.232 -0.0047
1707748563.6973 0.234 0.000 0.0016 0.234 0.0016
1707748563.7051 0.235 0.000 0.0047 0.235 0.0047
1707748563.7131 0.237 0.000 -0.0000 0.237 -0.0000
1707748563.7209 0.238 0.000 -0.0078 0.238 -0.0078
1707748563.7289 0.240 0.000 -0.0047 0.240 -0.0047
1707748563.7380 0.241 0.000 0.0016 0.241 0.0016
1707748563.7451 0.243 0.000 0.0062 0.243 0.0062
1707748563.7533 0.245 0.000 0.0016 0.245 0.0016
1707748563.7616 0.246 0.000 -0.0078 0.246 -0.0078
1707748563.7694 0.248 0.000 -0.0093 0.248 -0.0093
1707748563.7773 0.249 0.000 -0.0016 0.249 -0.0016
1707748563.7852 0.251 0.000 0.0047 0.251 0.0047
1707748563.7928 0.253 0.000 0.0016 0.253 0.0016
1707748563.8005 0.254 0.000 -0.0062 0.254 -0.0062
1707748563.8095 0.256 0.000 -0.0062 0.256 -0.0062
1707748563.8173 0.257 0.000 -0.0000 0.257 -0.0000
1707748563.8253 0.259 0.000 0.0062 0.259 0.0062
1707748563.8334 0.261 0.000 0.0031 0.261 0.0031
1707748563.8409 0.262 0.000 -0.0016 0.262 -0.0016
1707748563.8486 0.264 0.000 -0.0047 0.264 -0.0047
1707748563.8576 0.265 0.000 0.0016 0.265 0.0016
1707748563.8646 0.267 0.000 0.0078 0.267 0.0078
1707748563.8726 0.269 0.000 0.0062 0.269 0.0062
1707748563.8822 0.270 0.000 -0.0000 0.270 -0.0000
1707748563.8890 0.272 0.000 -0.0016 0.272 -0.0016
1707748563.8967 0.273 0.000 -0.0000 0.273 -0.0000
1707748563.9055 0.275 0.000 0.0047 0.275 0.0047
1707748563.9133 0.276 0.000 0.0031 0.276 0.0031
1707748563.9212 0.278 0.000 -0.0000 0.278 -0.0000
1707748563.9291 0.280 0.000 -0.0031 0.280 -0.0031
1707748563.9369 0.282 0.000 0.0016 0.282 0.0016
1707748563.9457 0.283 0.000 0.0062 0.283 0.0062
1707748563.9537 0.284 0.000 0.0062 0.284 0.0062
1707748563.9605 0.286 0.000 -0.0000 0.286 -0.0000
1707748563.9697 0.288 0.000 -0.0016 0.288 -0.0016
1707748563.9771 0.289 0.000 0.0016 0.289 0.0016
1707748563.9845 0.291 0.000 0.0047 0.291 0.0047
1707748563.9925 0.292 0.000 0.0031 0.292 0.0031
1707748564.0011 0.294 0.000 -0.0016 0.294 -0.0016
1707748564.0092 0.295 0.000 -0.0047 0.295 -0.0047
1707748564.0168 0.297 0.000 -0.0000 0.297 -0.0000
1707748564.0261 0.299 0.000 0.0016 0.299 0.0016
1707748564.0331 0.300 0.000 -0.0016 0.300 -0.0016
1707748564.0405 0.302 0.000 -0.0047 0.302 -0.0047
1707748564.0497 0.304 0.000 -0.0016 0.304 -0.0016
1707748564.0566 0.306 0.000 0.0031 0.306 0.0031
1707748564.0653 0.307 0.000 0.0016 0.307 0.0016
1707748564.0737 0.308 0.000 -0.0016 0.308 -0.0016
1707748564.0806 0.310 0.000 -0.0031 0.310 -0.0031
1707748564.0893 0.312 0.000 -0.0031 0.312 -0.0031
1707748564.0973 0.313 0.000 0.0016 0.313 0.0016
1707748564.1055 0.314 0.000 0.0031 0.314 0.0031
1707748564.1127 0.316 0.000 -0.0000 0.316 -0.0000
1707748564.1219 0.318 0.000 -0.0016 0.318 -0.0016
1707748564.1289 0.320 0.000 -0.0000 0.320 -0.0000
1707748564.1366 0.321 0.000 0.0016 0.321 0.0016
1707748564.1476 0.322 0.000 0.0031 0.322 0.0031
1707748564.1526 0.323 0.000 0.0016 0.323 0.0016
1707748564.1634 0.326 0.000 -0.0016 0.326 -0.0016
1707748564.1693 0.327 0.000 -0.0016 0.327 -0.0016
1707748564.1774 0.328 0.000 -0.0016 0.328 -0.0016
1707748564.1849 0.329 0.000 0.0016 0.329 0.0016
1707748564.1958 0.330 0.000 0.0031 0.330 0.0031
1707748564.2005 0.333 0.000 0.0016 0.333 0.0016
1707748564.2086 0.335 0.000 -0.0016 0.335 -0.0016
1707748564.2177 0.335 0.000 -0.0000 0.335 -0.0000
1707748564.2254 0.336 0.000 -0.0000 0.336 -0.0000
1707748564.2329 0.338 0.000 0.0016 0.338 0.0016
1707748564.2415 0.340 0.000 0.0016 0.340 0.0016
1707748564.2488 0.342 0.000 -0.0016 0.342 -0.0016
1707748564.2567 0.342 0.000 0.0000 0.342 0.0000
1707748564.2658 0.344 0.000 0.0031 0.344 0.0031
1707748564.2730 0.346 0.000 0.0062 0.346 0.0062
1707748564.2817 0.348 0.000 0.0031 0.348 0.0031
1707748564.2898 0.349 0.000 -0.0016 0.349 -0.0016
1707748564.2967 0.350 0.000 -0.0031 0.350 -0.0031
1707748564.3047 0.351 0.000 -0.0000 0.351 0.0000
1707748564.3134 0.353 0.000 0.0031 0.353 0.0031
1707748564.3205 0.356 0.000 0.0016 0.356 0.0016
1707748564.3302 0.357 0.000 -0.0016 0.357 -0.0016
1707748564.3374 0.358 0.000 -0.0047 0.358 -0.0047
1707748564.3460 0.359 0.000 -0.0016 0.359 -0.0016
1707748564.3531 0.361 0.000 0.0016 0.361 0.0016
1707748564.3614 0.364 0.000 0.0000 0.364 0.0000
1707748564.3694 0.365 0.000 -0.0047 0.365 -0.0047
1707748564.3775 0.366 0.000 -0.0047 0.366 -0.0047
1707748564.3858 0.367 0.000 0.0000 0.367 0.0000
1707748564.3925 0.369 0.000 0.0047 0.369 0.0047
1707748564.4005 0.372 0.000 0.0031 0.372 0.0031
1707748564.4093 0.373 0.000 -0.0016 0.373 -0.0016
1707748564.4176 0.374 0.000 -0.0031 0.374 -0.0031
1707748564.4249 0.375 0.000 0.0000 0.375 0.0000
1707748564.4334 0.378 0.000 0.0016 0.378 0.0016
1707748564.4415 0.380 0.000 0.0000 0.380 0.0000
1707748564.4492 0.381 0.000 0.0000 0.381 0.0000
1707748564.4580 0.382 0.000 -0.0016 0.382 -0.0016
1707748564.4650 0.383 0.000 -0.0016 0.383 -0.0016
1707748564.4732 0.385 0.000 0.0000 0.385 0.0000
1707748564.4819 0.388 0.000 -0.0016 0.388 -0.0016
1707748564.4887 0.389 0.000 -0.0016 0.389 -0.0016
1707748564.4971 0.390 0.000 -0.0016 0.390 -0.0016
1707748564.5061 0.392 0.000 -0.0031 0.392 -0.0031
1707748564.5131 0.394 0.000 -0.0016 0.394 -0.0016
1707748564.5206 0.396 0.000 -0.0016 0.396 -0.0016
1707748564.5301 0.397 0.000 0.0000 0.397 0.0000
1707748564.5368 0.397 0.000 0.0000 0.397 0.0000
1707748564.5458 0.399 0.000 0.0016 0.399 0.0016
1707748564.5533 0.401 0.000 0.0016 0.401 0.0016
1707748564.5606 0.403 0.000 -0.0016 0.403 -0.0016
1707748564.5690 0.405 0.000 -0.0016 0.405 -0.0016
1707748564.5775 0.406 0.000 -0.0016 0.406 -0.0016
1707748564.5851 0.407 0.000 0.0000 0.407 0.0000
1707748564.5927 0.409 0.000 0.0016 0.409 0.0016
1707748564.6013 0.411 0.000 0.0000 0.411 0.0000
1707748564.6096 0.412 0.000 -0.0031 0.412 -0.0031
1707748564.6168 0.413 0.000 -0.0031 0.413 -0.0031
1707748564.6256 0.415 0.000 -0.0000 0.415 0.0000
1707748564.6332 0.417 0.000 0.0016 0.417 0.0016
1707748564.6407 0.419 0.000 -0.0016 0.419 -0.0016
1707748564.6500 0.421 0.000 -0.0031 0.421 -0.0031
1707748564.6571 0.421 0.000 -0.0031 0.421 -0.0031
1707748564.6647 0.423 0.000 0.0000 0.423 0.0000
1707748564.6737 0.425 0.000 0.0016 0.425 0.0016
1707748564.6807 0.427 0.000 -0.0031 0.427 -0.0031
1707748564.6903 0.428 0.000 -0.0062 0.428 -0.0062
1707748564.6979 0.429 0.000 -0.0016 0.429 -0.0016
1707748564.7049 0.431 0.000 0.0031 0.431 0.0031
1707748564.7133 0.433 0.000 0.0016 0.433 0.0016
1707748564.7223 0.435 0.000 -0.0031 0.435 -0.0031
1707748564.7288 0.436 0.000 -0.0062 0.436 -0.0062
1707748564.7366 0.437 0.000 -0.0016 0.437 -0.0016
1707748564.7469 0.439 0.000 0.0031 0.439 0.0031
1707748564.7529 0.441 0.000 0.0031 0.441 0.0031
1707748564.7605 0.442 0.000 -0.0000 0.442 -0.0000
1707748564.7702 0.444 0.000 -0.0031 0.444 -0.0031
1707748564.7765 0.445 0.000 -0.0016 0.445 -0.0016
1707748564.7845 0.447 0.000 0.0031 0.447 0.0031
1707748564.7972 0.448 0.000 0.0016 0.448 0.0016
1707748564.8014 0.450 0.000 -0.0031 0.450 -0.0031
1707748564.8090 0.452 0.000 -0.0078 0.452 -0.0078
1707748564.8175 0.453 0.000 -0.0031 0.453 -0.0031
1707748564.8246 0.454 0.000 0.0031 0.454 0.0031
1707748564.8326 0.456 0.000 0.0031 0.456 0.0031
1707748564.8420 0.457 0.000 -0.0016 0.457 -0.0016
1707748564.8489 0.458 0.000 -0.0078 0.458 -0.0078
1707748564.8566 0.460 0.000 -0.0047 0.460 -0.0047
1707748564.8656 0.461 0.000 0.0047 0.461 0.0047
1707748564.8727 0.463 0.000 0.0078 0.463 0.0078
1707748564.8897 0.465 0.000 0.0016 0.465 0.0016
1707748564.8929 0.466 0.000 -0.0062 0.466 -0.0062
1707748564.8980 0.467 0.000 -0.0124 0.467 -0.0124
1707748564.9060 0.469 0.000 -0.0093 0.469 -0.0093
1707748564.9138 0.470 0.000 0.0016 0.470 0.0016
1707748564.9217 0.472 0.000 0.0078 0.472 0.0078
1707748564.9314 0.473 0.000 0.0016 0.473 0.0016
1707748564.9372 0.475 0.000 -0.0062 0.475 -0.0062
1707748564.9453 0.477 0.000 -0.0078 0.477 -0.0078
1707748564.9534 0.478 0.000 0.0016 0.478 0.0016
1707748564.9618 0.479 0.000 0.0093 0.479 0.0093
1707748564.9689 0.481 0.000 0.0093 0.481 0.0093
1707748564.9774 0.482 0.000 0.0031 0.482 0.0031
1707748564.9858 0.484 0.000 0.0016 0.484 0.0016
1707748564.9926 0.485 0.000 0.0062 0.485 0.0062
1707748565.0006 0.487 0.000 0.0140 0.487 0.0140
1707748565.0098 0.488 0.000 0.0109 0.488 0.0109
1707748565.0168 0.489 0.000 0.0047 0.489 0.0047
1707748565.0251 0.491 0.000 0.0047 0.491 0.0047
1707748565.0333 0.493 0.000 0.0093 0.493 0.0093
1707748565.0411 0.494 0.000 0.0155 0.494 0.0155
1707748565.0508 0.495 0.000 0.0140 0.495 0.0140
1707748565.0586 0.497 0.000 0.0078 0.497 0.0078
1707748565.0655 0.499 0.000 0.0047 0.499 0.0047
1707748565.0727 0.500 0.000 0.0093 0.500 0.0093
1707748565.0819 0.501 0.000 0.0155 0.501 0.0155
1707748565.0888 0.503 0.000 0.0140 0.503 0.0140
1707748565.1032 0.504 0.000 0.0109 0.505 0.0109
1707748565.1071 0.506 0.000 0.0078 0.506 0.0078
1707748565.1131 0.508 0.000 0.0093 0.508 0.0093
1707748565.1214 0.509 0.001 0.0109 0.509 0.0109
1707748565.1305 0.510 0.001 0.0109 0.510 0.0109
1707748565.1375 0.511 0.001 0.0093 0.511 0.0093
1707748565.1454 0.513 0.001 0.0093 0.513 0.0093
1707748565.1537 0.515 0.001 0.0109 0.515 0.0109
1707748565.1606 0.517 0.001 0.0093 0.517 0.0093
1707748565.1689 0.518 0.001 0.0109 0.518 0.0109
1707748565.1783 0.519 0.001 0.0093 0.519 0.0093
1707748565.1851 0.521 0.001 0.0093 0.521 0.0093
1707748565.1930 0.523 0.001 0.0078 0.523 0.0078
1707748565.2025 0.525 0.001 0.0078 0.525 0.0078
1707748565.2090 0.526 0.001 0.0093 0.526 0.0093
1707748565.2167 0.527 0.001 0.0093 0.527 0.0093
1707748565.2257 0.529 0.001 0.0078 0.529 0.0078
1707748565.2327 0.531 0.001 0.0047 0.531 0.0047
1707748565.2408 0.533 0.001 0.0062 0.533 0.0062
1707748565.2492 0.533 0.001 0.0093 0.533 0.0093
1707748565.2570 0.534 0.001 0.0062 0.534 0.0062
1707748565.2651 0.536 0.001 0.0031 0.536 0.0031
1707748565.2741 0.539 0.001 0.0031 0.539 0.0031
1707748565.2809 0.540 0.001 0.0031 0.540 0.0031
1707748565.2890 0.541 0.001 0.0062 0.541 0.0062
1707748565.2976 0.542 0.001 0.0031 0.542 0.0031
1707748565.3054 0.544 0.001 0.0000 0.544 0.0000
1707748565.3130 0.546 0.001 -0.0016 0.546 -0.0016
1707748565.3214 0.548 0.001 0.0016 0.548 0.0016
1707748565.3291 0.549 0.001 0.0047 0.549 0.0047
1707748565.3370 0.551 0.001 0.0016 0.551 0.0016
1707748565.3467 0.552 0.001 -0.0031 0.552 -0.0031
1707748565.3536 0.554 0.001 -0.0047 0.554 -0.0047
1707748565.3611 0.556 0.001 0.0000 0.556 0.0000
1707748565.3700 0.557 0.001 0.0047 0.557 0.0047
1707748565.3770 0.558 0.001 0.0031 0.558 0.0031
1707748565.3845 0.560 0.001 -0.0016 0.560 -0.0016
1707748565.3940 0.562 0.001 -0.0016 0.562 -0.0016
1707748565.4011 0.564 0.001 0.0000 0.564 0.0000
1707748565.4109 0.565 0.001 0.0031 0.565 0.0031
1707748565.4174 0.567 0.001 0.0000 0.567 0.0000
1707748565.4254 0.568 0.001 -0.0031 0.568 -0.0031
1707748565.4328 0.570 0.001 -0.0031 0.570 -0.0031
1707748565.4413 0.571 0.001 0.0000 0.571 0.0000
1707748565.4490 0.573 0.001 0.0031 0.573 0.0031
1707748565.4570 0.574 0.001 0.0000 0.574 0.0000
1707748565.4654 0.576 0.001 -0.0047 0.576 -0.0047
1707748565.4729 0.577 0.001 -0.0047 0.577 -0.0047
1707748565.4814 0.579 0.001 0.0000 0.579 0.0000
1707748565.4914 0.580 0.001 0.0016 0.580 0.0016
1707748565.4966 0.581 0.001 -0.0016 0.581 -0.0016
1707748565.5060 0.584 0.001 -0.0062 0.584 -0.0062
1707748565.5136 0.585 0.001 -0.0062 0.585 -0.0062
1707748565.5213 0.587 0.001 -0.0031 0.587 -0.0031
1707748565.5293 0.587 0.001 0.0016 0.587 0.0016
