% Pose without folding and reset (log_20240219_133022.464/log_pose_abs.txt)
% 1 	Time (sec)
% 2,3 	Position x,y (m)
% 4 	heading (rad)
% 5 	Driven distance (m) - signed
% 6 	Turned angle (rad) - signed
1708345823.1137 0.000 0.000 0.0000 0.000 0.0000
1708345823.1213 0.000 0.000 0.0000 0.000 0.0000
1708345823.1303 0.000 0.000 0.0000 0.000 0.0000
1708345823.1369 0.000 0.000 0.0000 0.000 0.0000
1708345823.1451 0.000 0.000 0.0000 0.000 0.0000
1708345823.1524 0.000 0.000 0.0000 0.000 0.0000
1708345823.1610 0.000 0.000 0.0000 0.000 0.0000
1708345823.1696 0.000 0.000 0.0000 0.000 0.0000
1708345823.1773 0.000 0.000 0.0000 0.000 0.0000
1708345823.1854 0.000 0.000 0.0000 0.000 0.0000
1708345823.1933 0.000 0.000 0.0000 0.000 0.0000
1708345823.2017 0.000 0.000 0.0000 0.000 0.0000
1708345823.2091 0.000 0.000 0.0000 0.000 0.0000
1708345823.2170 0.000 0.000 0.0000 0.000 0.0000
1708345823.2245 0.000 0.000 0.0000 0.000 0.0000
1708345823.2332 0.000 0.000 0.0000 0.000 0.0000
1708345823.2405 0.000 0.000 0.0000 0.000 0.0000
1708345823.2488 0.000 0.000 0.0000 0.000 0.0000
1708345823.2568 0.001 0.000 0.0016 0.001 0.0016
1708345823.2651 0.002 0.000 0.0031 0.002 0.0031
1708345823.2731 0.002 0.000 0.0031 0.002 0.0031
1708345823.2810 0.003 0.000 0.0031 0.003 0.0031
1708345823.2884 0.004 0.000 0.0062 0.004 0.0062
1708345823.2970 0.005 0.000 0.0078 0.005 0.0078
1708345823.3050 0.006 0.000 0.0093 0.006 0.0093
1708345823.3143 0.008 0.000 0.0124 0.008 0.0124
1708345823.3226 0.010 0.000 0.0140 0.010 0.0140
1708345823.3295 0.012 0.000 0.0186 0.012 0.0186
1708345823.3371 0.014 0.000 0.0233 0.014 0.0233
1708345823.3448 0.016 0.000 0.0310 0.016 0.0310
1708345823.3539 0.018 0.000 0.0404 0.018 0.0404
1708345823.3612 0.020 0.000 0.0481 0.020 0.0481
1708345823.3693 0.022 0.000 0.0543 0.022 0.0543
1708345823.3775 0.025 0.001 0.0621 0.025 0.0621
1708345823.3881 0.027 0.001 0.0745 0.027 0.0745
1708345823.3933 0.030 0.001 0.0869 0.030 0.0869
1708345823.4073 0.033 0.001 0.0978 0.033 0.0978
1708345823.4090 0.035 0.002 0.1071 0.035 0.1071
1708345823.4166 0.036 0.002 0.1118 0.036 0.1118
1708345823.4250 0.036 0.002 0.1164 0.036 0.1164
1708345823.4332 0.037 0.002 0.1242 0.037 0.1242
1708345823.4404 0.040 0.002 0.1319 0.040 0.1319
1708345823.4493 0.043 0.003 0.1428 0.043 0.1428
1708345823.4565 0.045 0.003 0.1521 0.045 0.1521
1708345823.4649 0.047 0.003 0.1614 0.047 0.1614
1708345823.4724 0.048 0.003 0.1692 0.048 0.1692
1708345823.4807 0.050 0.004 0.1801 0.051 0.1801
1708345823.4889 0.053 0.004 0.1909 0.053 0.1909
1708345823.4966 0.055 0.005 0.2002 0.056 0.2002
1708345823.5051 0.057 0.005 0.2049 0.058 0.2049
1708345823.5123 0.059 0.006 0.2111 0.060 0.2111
1708345823.5211 0.061 0.006 0.2204 0.061 0.2204
1708345823.5283 0.063 0.006 0.2282 0.064 0.2282
1708345823.5364 0.066 0.007 0.2313 0.066 0.2313
1708345823.5452 0.068 0.007 0.2328 0.068 0.2328
1708345823.5533 0.070 0.008 0.2375 0.070 0.2375
1708345823.5605 0.072 0.009 0.2453 0.073 0.2453
1708345823.5691 0.074 0.009 0.2499 0.075 0.2499
1708345823.5763 0.076 0.010 0.2515 0.077 0.2515
1708345823.5844 0.078 0.010 0.2546 0.079 0.2546
1708345823.5931 0.080 0.011 0.2577 0.081 0.2577
1708345823.6003 0.083 0.011 0.2608 0.084 0.2608
1708345823.6092 0.085 0.012 0.2623 0.086 0.2623
1708345823.6170 0.087 0.012 0.2608 0.088 0.2608
1708345823.6245 0.089 0.013 0.2561 0.090 0.2561
1708345823.6327 0.091 0.014 0.2577 0.093 0.2577
1708345823.6405 0.094 0.014 0.2608 0.095 0.2608
1708345823.6491 0.097 0.015 0.2608 0.098 0.2608
1708345823.6566 0.098 0.015 0.2546 0.100 0.2546
1708345823.6644 0.100 0.016 0.2499 0.102 0.2499
1708345823.6731 0.103 0.017 0.2468 0.105 0.2468
1708345823.6804 0.106 0.017 0.2468 0.108 0.2468
1708345823.6893 0.108 0.018 0.2422 0.110 0.2422
1708345823.6965 0.110 0.018 0.2344 0.112 0.2344
1708345823.7048 0.113 0.019 0.2266 0.115 0.2266
1708345823.7250 0.115 0.020 0.2220 0.117 0.2220
1708345823.7283 0.117 0.020 0.2173 0.120 0.2173
1708345823.7300 0.120 0.021 0.2096 0.122 0.2096
1708345823.7367 0.122 0.021 0.2033 0.124 0.2033
1708345823.7451 0.122 0.021 0.2002 0.125 0.2002
1708345823.7533 0.123 0.021 0.1971 0.125 0.1971
1708345823.7608 0.125 0.022 0.1909 0.127 0.1909
1708345823.7690 0.127 0.022 0.1816 0.130 0.1816
1708345823.7769 0.130 0.022 0.1739 0.132 0.1739
1708345823.7851 0.131 0.023 0.1676 0.134 0.1676
1708345823.7923 0.133 0.023 0.1614 0.135 0.1614
1708345823.8005 0.134 0.023 0.1521 0.137 0.1521
1708345823.8091 0.137 0.024 0.1397 0.139 0.1397
1708345823.8163 0.139 0.024 0.1288 0.141 0.1288
1708345823.8253 0.140 0.024 0.1226 0.143 0.1226
1708345823.8323 0.142 0.024 0.1180 0.144 0.1180
1708345823.8404 0.143 0.024 0.1087 0.146 0.1087
1708345823.8496 0.146 0.025 0.0962 0.148 0.0962
1708345823.8563 0.148 0.025 0.0854 0.151 0.0854
1708345823.8646 0.150 0.025 0.0807 0.153 0.0807
1708345823.8724 0.152 0.025 0.0745 0.154 0.0745
1708345823.8812 0.154 0.025 0.0621 0.156 0.0621
1708345823.8884 0.156 0.025 0.0512 0.159 0.0512
1708345823.8965 0.159 0.026 0.0419 0.161 0.0419
1708345823.9053 0.161 0.026 0.0357 0.163 0.0357
1708345823.9132 0.162 0.026 0.0295 0.165 0.0295
1708345823.9210 0.165 0.026 0.0202 0.168 0.0202
1708345823.9287 0.168 0.026 0.0078 0.170 0.0078
1708345823.9370 0.170 0.026 0.0031 0.172 0.0031
1708345823.9450 0.172 0.026 0.0016 0.174 0.0016
1708345823.9527 0.174 0.026 -0.0047 0.177 -0.0047
1708345823.9609 0.177 0.026 -0.0109 0.179 -0.0109
1708345823.9688 0.180 0.026 -0.0186 0.182 -0.0186
1708345823.9765 0.182 0.026 -0.0202 0.185 -0.0202
1708345823.9846 0.184 0.026 -0.0217 0.187 -0.0217
1708345823.9928 0.186 0.026 -0.0279 0.189 -0.0279
1708345824.0005 0.189 0.026 -0.0341 0.192 -0.0341
1708345824.0091 0.192 0.025 -0.0357 0.194 -0.0357
1708345824.0173 0.194 0.025 -0.0357 0.197 -0.0357
1708345824.0247 0.196 0.025 -0.0388 0.199 -0.0388
1708345824.0327 0.199 0.025 -0.0435 0.201 -0.0435
1708345824.0403 0.201 0.025 -0.0435 0.204 -0.0435
1708345824.0491 0.204 0.025 -0.0388 0.207 -0.0388
1708345824.0566 0.206 0.025 -0.0419 0.208 -0.0419
1708345824.0648 0.208 0.025 -0.0466 0.211 -0.0466
1708345824.0723 0.211 0.025 -0.0435 0.213 -0.0435
1708345824.0803 0.213 0.025 -0.0388 0.216 -0.0388
1708345824.0886 0.215 0.024 -0.0388 0.218 -0.0388
1708345824.0964 0.217 0.024 -0.0419 0.220 -0.0419
1708345824.1045 0.220 0.024 -0.0419 0.223 -0.0419
1708345824.1124 0.223 0.024 -0.0373 0.226 -0.0373
1708345824.1206 0.225 0.024 -0.0326 0.228 -0.0326
1708345824.1288 0.226 0.024 -0.0295 0.229 -0.0295
1708345824.1371 0.229 0.024 -0.0264 0.232 -0.0264
1708345824.1448 0.233 0.024 -0.0233 0.235 -0.0233
1708345824.1530 0.235 0.024 -0.0233 0.238 -0.0233
1708345824.1612 0.237 0.024 -0.0202 0.239 -0.0202
1708345824.1700 0.238 0.024 -0.0155 0.241 -0.0155
1708345824.1772 0.241 0.024 -0.0109 0.244 -0.0109
1708345824.1844 0.244 0.024 -0.0093 0.247 -0.0093
1708345824.1932 0.246 0.024 -0.0093 0.249 -0.0093
1708345824.2003 0.248 0.024 -0.0078 0.251 -0.0078
1708345824.2094 0.250 0.024 -0.0062 0.253 -0.0062
1708345824.2172 0.253 0.024 -0.0047 0.256 -0.0047
1708345824.2250 0.256 0.024 -0.0016 0.259 -0.0016
1708345824.2325 0.259 0.024 -0.0016 0.261 -0.0016
1708345824.2413 0.260 0.024 0.0016 0.263 0.0016
1708345824.2485 0.262 0.024 0.0062 0.265 0.0062
1708345824.2565 0.265 0.024 0.0093 0.268 0.0093
1708345824.2643 0.268 0.024 0.0062 0.270 0.0062
1708345824.2731 0.270 0.024 0.0062 0.273 0.0062
1708345824.2813 0.272 0.024 0.0109 0.275 0.0109
1708345824.2891 0.275 0.024 0.0140 0.277 0.0140
1708345824.2966 0.277 0.024 0.0109 0.280 0.0109
1708345824.3050 0.279 0.024 0.0093 0.282 0.0093
1708345824.3129 0.282 0.024 0.0140 0.284 0.0140
1708345824.3207 0.284 0.024 0.0202 0.287 0.0202
1708345824.3289 0.287 0.024 0.0171 0.289 0.0171
1708345824.3371 0.289 0.024 0.0140 0.292 0.0140
1708345824.3457 0.292 0.024 0.0186 0.294 0.0186
1708345824.3529 0.294 0.024 0.0264 0.297 0.0264
1708345824.3606 0.296 0.024 0.0279 0.299 0.0279
1708345824.3695 0.299 0.024 0.0233 0.301 0.0233
1708345824.3771 0.301 0.024 0.0202 0.304 0.0202
1708345824.3848 0.304 0.024 0.0233 0.306 0.0233
1708345824.3928 0.306 0.024 0.0295 0.309 0.0295
1708345824.4010 0.308 0.024 0.0310 0.311 0.0310
1708345824.4088 0.311 0.024 0.0264 0.313 0.0264
1708345824.4170 0.313 0.025 0.0233 0.316 0.0233
1708345824.4249 0.316 0.025 0.0279 0.318 0.0279
1708345824.4326 0.318 0.025 0.0326 0.321 0.0326
1708345824.4410 0.320 0.025 0.0326 0.323 0.0326
1708345824.4492 0.323 0.025 0.0279 0.326 0.0279
1708345824.4563 0.325 0.025 0.0248 0.328 0.0248
1708345824.4650 0.328 0.025 0.0295 0.330 0.0295
1708345824.4728 0.330 0.025 0.0357 0.332 0.0357
1708345824.4804 0.332 0.025 0.0357 0.335 0.0357
1708345824.4886 0.335 0.025 0.0295 0.337 0.0295
1708345824.4972 0.337 0.025 0.0264 0.340 0.0264
1708345824.5050 0.339 0.025 0.0264 0.342 0.0264
1708345824.5133 0.342 0.025 0.0295 0.345 0.0295
1708345824.5207 0.344 0.025 0.0279 0.347 0.0279
1708345824.5283 0.347 0.026 0.0233 0.349 0.0233
1708345824.5365 0.348 0.026 0.0217 0.351 0.0217
1708345824.5447 0.351 0.026 0.0233 0.353 0.0233
1708345824.5525 0.354 0.026 0.0233 0.356 0.0233
1708345824.5607 0.356 0.026 0.0217 0.359 0.0217
1708345824.5700 0.358 0.026 0.0202 0.361 0.0202
1708345824.5766 0.360 0.026 0.0186 0.363 0.0186
1708345824.5848 0.363 0.026 0.0186 0.366 0.0186
1708345824.5931 0.366 0.026 0.0186 0.369 0.0186
1708345824.6009 0.368 0.026 0.0171 0.371 0.0171
1708345824.6088 0.370 0.026 0.0171 0.373 0.0171
1708345824.6168 0.372 0.026 0.0171 0.375 0.0171
1708345824.6252 0.375 0.026 0.0155 0.378 0.0155
1708345824.6323 0.378 0.026 0.0140 0.380 0.0140
1708345824.6408 0.380 0.026 0.0124 0.382 0.0124
1708345824.6486 0.382 0.026 0.0140 0.385 0.0140
1708345824.6568 0.385 0.026 0.0140 0.387 0.0140
1708345824.6649 0.387 0.026 0.0124 0.390 0.0124
1708345824.6733 0.390 0.026 0.0078 0.392 0.0078
1708345824.6807 0.392 0.026 0.0093 0.395 0.0093
1708345824.6889 0.394 0.026 0.0093 0.397 0.0093
1708345824.6972 0.396 0.026 0.0062 0.399 0.0062
1708345824.7052 0.399 0.026 0.0031 0.402 0.0031
1708345824.7124 0.402 0.026 0.0031 0.404 0.0031
1708345824.7208 0.404 0.026 0.0062 0.407 0.0062
1708345824.7291 0.406 0.026 0.0062 0.409 0.0062
1708345824.7373 0.408 0.026 0.0016 0.411 0.0016
1708345824.7451 0.411 0.026 -0.0016 0.414 -0.0016
1708345824.7532 0.414 0.026 0.0000 0.416 0.0000
1708345824.7607 0.416 0.026 0.0031 0.419 0.0031
1708345824.7692 0.418 0.026 -0.0016 0.421 -0.0016
1708345824.7763 0.420 0.026 -0.0047 0.423 -0.0047
1708345824.7846 0.423 0.026 -0.0078 0.426 -0.0078
1708345824.7923 0.426 0.026 -0.0047 0.428 -0.0047
1708345824.8006 0.428 0.026 0.0000 0.430 0.0000
1708345824.8089 0.430 0.026 -0.0047 0.432 -0.0047
1708345824.8167 0.432 0.026 -0.0109 0.435 -0.0109
1708345824.8252 0.435 0.026 -0.0109 0.437 -0.0109
1708345824.8324 0.438 0.026 -0.0062 0.440 -0.0062
1708345824.8404 0.440 0.026 -0.0062 0.442 -0.0062
1708345824.8486 0.442 0.026 -0.0109 0.445 -0.0109
1708345824.8570 0.444 0.026 -0.0155 0.447 -0.0155
1708345824.8647 0.447 0.026 -0.0140 0.449 -0.0140
1708345824.8725 0.450 0.026 -0.0093 0.452 -0.0093
1708345824.8807 0.452 0.026 -0.0109 0.455 -0.0109
1708345824.8883 0.454 0.026 -0.0140 0.457 -0.0140
1708345824.8965 0.457 0.026 -0.0140 0.459 -0.0140
1708345824.9048 0.459 0.026 -0.0109 0.462 -0.0109
1708345824.9126 0.461 0.026 -0.0109 0.464 -0.0109
1708345824.9204 0.464 0.026 -0.0124 0.467 -0.0124
1708345824.9295 0.466 0.026 -0.0171 0.469 -0.0171
1708345824.9372 0.468 0.026 -0.0140 0.471 -0.0140
1708345824.9444 0.471 0.026 -0.0109 0.474 -0.0109
1708345824.9526 0.474 0.026 -0.0124 0.476 -0.0124
1708345824.9607 0.476 0.026 -0.0171 0.478 -0.0171
1708345824.9702 0.477 0.026 -0.0186 0.480 -0.0186
1708345824.9772 0.480 0.026 -0.0140 0.483 -0.0140
1708345824.9851 0.483 0.026 -0.0109 0.486 -0.0109
1708345824.9923 0.485 0.026 -0.0155 0.488 -0.0155
1708345825.0005 0.487 0.026 -0.0186 0.490 -0.0186
1708345825.0083 0.489 0.026 -0.0155 0.492 -0.0155
1708345825.0165 0.492 0.026 -0.0124 0.495 -0.0124
1708345825.0244 0.495 0.025 -0.0124 0.498 -0.0124
1708345825.0332 0.497 0.025 -0.0155 0.500 -0.0155
1708345825.0403 0.499 0.025 -0.0140 0.502 -0.0140
1708345825.0487 0.501 0.025 -0.0109 0.504 -0.0109
1708345825.0569 0.504 0.025 -0.0124 0.507 -0.0124
1708345825.0657 0.506 0.025 -0.0140 0.509 -0.0140
1708345825.0731 0.509 0.025 -0.0140 0.512 -0.0140
1708345825.0804 0.511 0.025 -0.0109 0.514 -0.0109
1708345825.0894 0.513 0.025 -0.0093 0.516 -0.0093
1708345825.0968 0.515 0.025 -0.0109 0.518 -0.0109
1708345825.1051 0.518 0.025 -0.0124 0.521 -0.0124
1708345825.1128 0.521 0.025 -0.0109 0.523 -0.0109
1708345825.1213 0.523 0.025 -0.0078 0.526 -0.0078
1708345825.1285 0.525 0.025 -0.0047 0.528 -0.0047
1708345825.1364 0.527 0.025 -0.0031 0.530 -0.0031
1708345825.1445 0.530 0.025 -0.0031 0.533 -0.0031
1708345825.1523 0.533 0.025 -0.0047 0.535 -0.0047
1708345825.1604 0.535 0.025 -0.0047 0.538 -0.0047
1708345825.1693 0.537 0.025 0.0016 0.540 0.0016
1708345825.1772 0.539 0.025 0.0062 0.542 0.0062
1708345825.1843 0.542 0.025 0.0062 0.545 0.0062
1708345825.1926 0.544 0.025 0.0062 0.547 0.0062
1708345825.2012 0.546 0.025 0.0078 0.549 0.0078
1708345825.2084 0.549 0.025 0.0140 0.551 0.0140
1708345825.2166 0.551 0.025 0.0186 0.554 0.0186
1708345825.2244 0.554 0.025 0.0171 0.557 0.0171
1708345825.2327 0.556 0.025 0.0171 0.559 0.0171
1708345825.2410 0.559 0.025 0.0217 0.561 0.0217
1708345825.2486 0.561 0.025 0.0279 0.564 0.0279
1708345825.2569 0.564 0.025 0.0279 0.567 0.0279
1708345825.2652 0.566 0.026 0.0264 0.569 0.0264
1708345825.2726 0.569 0.026 0.0295 0.571 0.0295
1708345825.2808 0.571 0.026 0.0357 0.574 0.0357
1708345825.2889 0.573 0.026 0.0404 0.576 0.0404
1708345825.2967 0.576 0.026 0.0373 0.579 0.0373
1708345825.3050 0.578 0.026 0.0341 0.581 0.0341
1708345825.3132 0.581 0.026 0.0357 0.583 0.0357
1708345825.3207 0.583 0.026 0.0419 0.586 0.0419
1708345825.3290 0.585 0.026 0.0435 0.588 0.0435
1708345825.3370 0.588 0.026 0.0404 0.591 0.0404
1708345825.3449 0.590 0.026 0.0326 0.593 0.0326
1708345825.3525 0.592 0.027 0.0341 0.595 0.0341
1708345825.3608 0.595 0.027 0.0373 0.597 0.0373
1708345825.3693 0.598 0.027 0.0357 0.600 0.0357
1708345825.3765 0.600 0.027 0.0310 0.603 0.0310
1708345825.3845 0.602 0.027 0.0279 0.605 0.0279
1708345825.3924 0.604 0.027 0.0295 0.607 0.0295
1708345825.4006 0.607 0.027 0.0279 0.610 0.0279
1708345825.4086 0.609 0.027 0.0248 0.612 0.0248
1708345825.4165 0.612 0.027 0.0233 0.614 0.0233
1708345825.4251 0.613 0.027 0.0233 0.616 0.0233
1708345825.4323 0.616 0.027 0.0217 0.619 0.0217
1708345825.4411 0.619 0.027 0.0171 0.621 0.0171
1708345825.4483 0.621 0.027 0.0155 0.624 0.0155
1708345825.4565 0.623 0.027 0.0155 0.626 0.0155
1708345825.4650 0.625 0.027 0.0171 0.628 0.0171
1708345825.4725 0.628 0.027 0.0155 0.631 0.0155
1708345825.4813 0.630 0.027 0.0124 0.633 0.0124
1708345825.4891 0.632 0.027 0.0109 0.635 0.0109
1708345825.4973 0.635 0.027 0.0109 0.638 0.0109
1708345825.5045 0.638 0.028 0.0093 0.640 0.0093
1708345825.5123 0.641 0.028 0.0078 0.643 0.0078
1708345825.5203 0.642 0.028 0.0093 0.645 0.0093
1708345825.5286 0.644 0.028 0.0078 0.647 0.0078
1708345825.5363 0.647 0.028 0.0078 0.649 0.0078
1708345825.5446 0.649 0.028 0.0062 0.652 0.0062
1708345825.5664 0.652 0.028 0.0031 0.655 0.0031
1708345825.5698 0.654 0.028 0.0016 0.657 0.0016
1708345825.5721 0.655 0.028 0.0031 0.658 0.0031
1708345825.5764 0.658 0.028 0.0047 0.661 0.0047
1708345825.5871 0.659 0.028 0.0031 0.662 0.0031
1708345825.5984 0.660 0.028 0.0000 0.662 0.0000
1708345825.6013 0.661 0.028 -0.0016 0.664 -0.0016
1708345825.6084 0.663 0.028 -0.0031 0.666 -0.0031
1708345825.6167 0.665 0.028 -0.0031 0.668 -0.0031
1708345825.6246 0.667 0.028 -0.0016 0.670 -0.0016
1708345825.6324 0.669 0.028 -0.0031 0.672 -0.0031
1708345825.6407 0.672 0.028 -0.0047 0.675 -0.0047
1708345825.6489 0.674 0.028 -0.0031 0.677 -0.0031
1708345825.6571 0.675 0.028 -0.0031 0.678 -0.0031
1708345825.6648 0.678 0.028 -0.0047 0.680 -0.0047
1708345825.6726 0.680 0.028 -0.0031 0.682 -0.0031
1708345825.6808 0.682 0.028 -0.0016 0.684 -0.0016
1708345825.6892 0.684 0.028 -0.0016 0.687 -0.0016
1708345825.6964 0.686 0.028 -0.0016 0.689 -0.0016
1708345825.7044 0.688 0.028 -0.0016 0.691 -0.0016
1708345825.7128 0.691 0.028 0.0000 0.693 0.0000
1708345825.7209 0.693 0.028 0.0000 0.696 0.0000
1708345825.7289 0.696 0.028 0.0000 0.699 0.0000
1708345825.7373 0.698 0.028 0.0016 0.701 0.0016
1708345825.7444 0.700 0.028 0.0031 0.703 0.0031
1708345825.7525 0.703 0.028 0.0031 0.705 0.0031
1708345825.7610 0.705 0.028 0.0016 0.708 0.0016
1708345825.7691 0.708 0.028 0.0000 0.711 0.0000
1708345825.7770 0.711 0.028 0.0000 0.713 0.0000
1708345825.7852 0.713 0.028 0.0016 0.716 0.0016
1708345825.7926 0.715 0.028 0.0047 0.718 0.0047
1708345825.8010 0.717 0.028 0.0016 0.720 0.0016
1708345825.8090 0.720 0.028 -0.0016 0.723 -0.0016
1708345825.8164 0.722 0.028 0.0016 0.725 0.0016
1708345825.8245 0.725 0.028 0.0047 0.728 0.0047
1708345825.8329 0.727 0.028 0.0078 0.730 0.0078
1708345825.8480 0.729 0.028 0.0031 0.732 0.0031
1708345825.8507 0.732 0.028 -0.0016 0.735 -0.0016
1708345825.8570 0.735 0.028 -0.0062 0.737 -0.0062
1708345825.8644 0.736 0.028 -0.0047 0.739 -0.0047
1708345825.8724 0.737 0.028 0.0000 0.740 0.0000
1708345825.8808 0.740 0.028 0.0031 0.742 0.0031
1708345825.8884 0.743 0.028 0.0031 0.745 0.0031
1708345825.8973 0.745 0.028 0.0031 0.748 0.0031
1708345825.9084 0.747 0.028 0.0047 0.749 0.0047
1708345825.9125 0.748 0.028 0.0078 0.751 0.0078
1708345825.9211 0.751 0.028 0.0078 0.753 0.0078
1708345825.9285 0.752 0.028 0.0078 0.755 0.0078
1708345825.9371 0.754 0.028 0.0078 0.757 0.0078
1708345825.9450 0.757 0.028 0.0078 0.760 0.0078
1708345825.9523 0.760 0.028 0.0062 0.762 0.0062
1708345825.9608 0.761 0.028 0.0062 0.764 0.0062
1708345825.9694 0.763 0.028 0.0047 0.766 0.0047
1708345825.9767 0.765 0.028 0.0047 0.768 0.0047
1708345825.9852 0.768 0.028 0.0078 0.771 0.0078
1708345825.9932 0.770 0.028 0.0078 0.773 0.0078
1708345826.0006 0.772 0.028 0.0062 0.774 0.0062
1708345826.0095 0.774 0.028 0.0062 0.777 0.0062
1708345826.0169 0.777 0.028 0.0062 0.779 0.0062
1708345826.0249 0.779 0.028 0.0078 0.782 0.0078
1708345826.0323 0.781 0.028 0.0062 0.784 0.0062
1708345826.0410 0.783 0.028 0.0047 0.786 0.0047
1708345826.0493 0.786 0.028 0.0031 0.789 0.0031
1708345826.0566 0.789 0.028 0.0062 0.791 0.0062
1708345826.0647 0.791 0.028 0.0078 0.793 0.0078
1708345826.0727 0.793 0.028 0.0062 0.796 0.0062
1708345826.0811 0.796 0.028 0.0047 0.798 0.0047
1708345826.0885 0.798 0.028 0.0031 0.801 0.0031
1708345826.0969 0.801 0.028 0.0047 0.804 0.0047
1708345826.1053 0.803 0.028 0.0078 0.806 0.0078
1708345826.1131 0.805 0.028 0.0062 0.808 0.0062
1708345826.1212 0.808 0.028 0.0047 0.810 0.0047
1708345826.1287 0.811 0.028 0.0047 0.813 0.0047
1708345826.1370 0.814 0.028 0.0062 0.816 0.0062
1708345826.1453 0.815 0.028 0.0078 0.818 0.0078
1708345826.1525 0.817 0.028 0.0062 0.820 0.0062
1708345826.1604 0.820 0.028 0.0062 0.822 0.0062
1708345826.1692 0.823 0.028 0.0062 0.825 0.0062
1708345826.1766 0.825 0.028 0.0062 0.828 0.0062
1708345826.1845 0.827 0.028 0.0062 0.830 0.0062
1708345826.1926 0.829 0.028 0.0062 0.831 0.0062
1708345826.2009 0.831 0.028 0.0062 0.834 0.0062
1708345826.2086 0.834 0.028 0.0078 0.837 0.0078
1708345826.2168 0.837 0.028 0.0078 0.840 0.0078
1708345826.2247 0.839 0.028 0.0078 0.842 0.0078
1708345826.2325 0.841 0.028 0.0047 0.844 0.0047
1708345826.2405 0.843 0.028 0.0031 0.846 0.0031
1708345826.2488 0.846 0.028 0.0031 0.849 0.0031
1708345826.2566 0.849 0.028 0.0062 0.852 0.0062
1708345826.2651 0.851 0.028 0.0093 0.854 0.0093
1708345826.2729 0.853 0.028 0.0062 0.855 0.0062
1708345826.2805 0.855 0.028 0.0000 0.858 0.0000
1708345826.2887 0.858 0.028 0.0016 0.861 0.0016
1708345826.2969 0.860 0.028 0.0078 0.863 0.0078
1708345826.3047 0.863 0.028 0.0062 0.865 0.0062
1708345826.3130 0.865 0.028 0.0000 0.868 0.0000
1708345826.3213 0.868 0.028 -0.0016 0.870 -0.0016
1708345826.3289 0.870 0.028 0.0031 0.873 0.0031
1708345826.3372 0.872 0.028 0.0062 0.875 0.0062
1708345826.3444 0.875 0.028 0.0062 0.877 0.0062
1708345826.3532 0.877 0.028 0.0031 0.880 0.0031
1708345826.3603 0.879 0.028 -0.0016 0.882 -0.0016
1708345826.3701 0.881 0.028 0.0000 0.884 0.0000
