% Pose without folding and reset (log_20240224_120632.383/log_pose_abs.txt)
% 1 	Time (sec)
% 2,3 	Position x,y (m)
% 4 	heading (rad)
% 5 	Driven distance (m) - signed
% 6 	Turned angle (rad) - signed
1708772792.7815 0.000 0.000 0.0000 0.000 0.0000
1708772792.7895 0.000 0.000 0.0000 0.000 0.0000
1708772792.7980 0.000 0.000 0.0000 0.000 0.0000
1708772792.8045 0.000 0.000 0.0000 0.000 0.0000
1708772792.8128 0.000 0.000 0.0000 0.000 0.0000
1708772792.8208 0.000 0.000 0.0000 0.000 0.0000
1708772792.8284 0.000 0.000 0.0000 0.000 0.0000
1708772792.8371 0.000 0.000 0.0000 0.000 0.0000
1708772792.8450 0.000 0.000 0.0000 0.000 0.0000
1708772792.8528 0.000 0.000 0.0000 0.000 0.0000
1708772792.8612 0.000 0.000 0.0000 0.000 0.0000
1708772792.8684 0.000 0.000 0.0000 0.000 0.0000
1708772792.8762 0.000 0.000 0.0000 0.000 0.0000
1708772792.8846 0.000 0.000 0.0000 0.000 0.0000
1708772792.8927 0.000 0.000 0.0000 0.000 0.0000
1708772792.9003 0.000 0.000 0.0000 0.000 0.0000
1708772792.9088 0.000 0.000 0.0000 0.000 0.0000
1708772792.9169 0.000 0.000 0.0016 0.000 0.0016
1708772792.9246 0.001 0.000 0.0093 0.001 0.0093
1708772792.9325 0.003 0.000 0.0093 0.003 0.0093
1708772792.9406 0.005 0.000 0.0078 0.005 0.0078
1708772792.9485 0.007 0.000 0.0078 0.007 0.0078
1708772792.9572 0.008 0.000 0.0093 0.008 0.0093
1708772792.9646 0.010 0.000 0.0109 0.010 0.0109
1708772792.9735 0.013 0.000 0.0124 0.013 0.0124
1708772792.9817 0.015 0.000 0.0140 0.015 0.0140
1708772792.9889 0.018 0.000 0.0155 0.018 0.0155
1708772792.9971 0.020 0.000 0.0186 0.020 0.0186
1708772793.0046 0.023 0.000 0.0217 0.023 0.0217
1708772793.0130 0.026 0.000 0.0248 0.026 0.0248
1708772793.0213 0.030 0.000 0.0264 0.030 0.0264
1708772793.0284 0.033 0.001 0.0295 0.033 0.0295
1708772793.0377 0.037 0.001 0.0326 0.037 0.0326
1708772793.0444 0.040 0.001 0.0373 0.040 0.0373
1708772793.0563 0.044 0.001 0.0404 0.044 0.0404
1708772793.0609 0.047 0.001 0.0450 0.047 0.0450
1708772793.0687 0.051 0.001 0.0497 0.051 0.0497
1708772793.0762 0.053 0.001 0.0543 0.053 0.0543
1708772793.0847 0.056 0.002 0.0543 0.056 0.0543
1708772793.0924 0.061 0.002 0.0574 0.061 0.0574
1708772793.1003 0.064 0.002 0.0652 0.065 0.0652
1708772793.1091 0.067 0.002 0.0714 0.068 0.0714
1708772793.1164 0.070 0.002 0.0745 0.071 0.0745
1708772793.1249 0.074 0.003 0.0761 0.074 0.0761
1708772793.1323 0.077 0.003 0.0807 0.077 0.0807
1708772793.1410 0.080 0.003 0.0885 0.081 0.0885
1708772793.1482 0.084 0.004 0.0931 0.084 0.0931
1708772793.1566 0.087 0.004 0.0931 0.087 0.0931
1708772793.1641 0.090 0.004 0.0947 0.090 0.0947
1708772793.1723 0.093 0.004 0.1024 0.093 0.1024
1708772793.1805 0.097 0.005 0.1071 0.097 0.1071
1708772793.1888 0.100 0.005 0.1102 0.100 0.1102
1708772793.1970 0.103 0.006 0.1149 0.103 0.1149
1708772793.2050 0.106 0.006 0.1195 0.107 0.1195
1708772793.2127 0.109 0.006 0.1226 0.110 0.1226
1708772793.2208 0.113 0.007 0.1226 0.113 0.1226
1708772793.2290 0.116 0.007 0.1257 0.116 0.1257
1708772793.2374 0.119 0.007 0.1319 0.119 0.1319
1708772793.2445 0.122 0.008 0.1382 0.122 0.1382
1708772793.2525 0.125 0.008 0.1397 0.126 0.1397
1708772793.2602 0.128 0.009 0.1397 0.129 0.1397
1708772793.2684 0.131 0.009 0.1444 0.132 0.1444
1708772793.2766 0.135 0.010 0.1506 0.135 0.1506
1708772793.2843 0.138 0.010 0.1521 0.138 0.1521
1708772793.2929 0.141 0.011 0.1521 0.141 0.1521
1708772793.3011 0.144 0.011 0.1537 0.145 0.1537
1708772793.3088 0.148 0.012 0.1614 0.148 0.1614
1708772793.3170 0.150 0.012 0.1661 0.151 0.1661
1708772793.3241 0.153 0.013 0.1645 0.154 0.1645
1708772793.3330 0.157 0.013 0.1645 0.157 0.1645
1708772793.3407 0.160 0.014 0.1707 0.161 0.1707
1708772793.3491 0.163 0.014 0.1770 0.164 0.1770
1708772793.3570 0.166 0.015 0.1816 0.167 0.1816
1708772793.3644 0.170 0.015 0.1801 0.170 0.1801
1708772793.3729 0.173 0.016 0.1770 0.174 0.1770
1708772793.3809 0.175 0.017 0.1832 0.177 0.1832
1708772793.3886 0.179 0.017 0.1894 0.180 0.1894
1708772793.3969 0.182 0.018 0.1909 0.184 0.1909
1708772793.4048 0.185 0.018 0.1863 0.187 0.1863
1708772793.4131 0.188 0.019 0.1863 0.190 0.1863
1708772793.4203 0.192 0.020 0.1909 0.193 0.1909
1708772793.4290 0.195 0.020 0.1940 0.196 0.1940
1708772793.4368 0.198 0.021 0.1925 0.200 0.1925
1708772793.4448 0.201 0.022 0.1863 0.203 0.1863
1708772793.4526 0.204 0.022 0.1863 0.206 0.1863
1708772793.4608 0.207 0.023 0.1909 0.209 0.1909
1708772793.4691 0.210 0.023 0.1909 0.212 0.1909
1708772793.4776 0.214 0.024 0.1863 0.215 0.1863
1708772793.4847 0.217 0.025 0.1816 0.219 0.1816
1708772793.4926 0.220 0.025 0.1832 0.222 0.1832
1708772793.5005 0.223 0.026 0.1863 0.225 0.1863
1708772793.5087 0.225 0.026 0.1832 0.227 0.1832
1708772793.5169 0.229 0.027 0.1770 0.231 0.1770
1708772793.5245 0.233 0.027 0.1739 0.235 0.1739
1708772793.5327 0.236 0.028 0.1754 0.238 0.1754
1708772793.5405 0.238 0.028 0.1785 0.240 0.1785
1708772793.5483 0.241 0.029 0.1754 0.243 0.1754
1708772793.5565 0.244 0.029 0.1676 0.247 0.1676
1708772793.5646 0.248 0.030 0.1645 0.250 0.1645
1708772793.5724 0.251 0.030 0.1676 0.253 0.1676
1708772793.5807 0.254 0.031 0.1661 0.256 0.1661
1708772793.5885 0.257 0.032 0.1614 0.260 0.1614
1708772793.5963 0.260 0.032 0.1568 0.263 0.1568
1708772793.6045 0.263 0.033 0.1568 0.266 0.1568
1708772793.6127 0.266 0.033 0.1583 0.269 0.1583
1708772793.6204 0.270 0.034 0.1552 0.272 0.1552
1708772793.6286 0.273 0.034 0.1490 0.276 0.1490
1708772793.6376 0.276 0.034 0.1428 0.278 0.1428
1708772793.6443 0.279 0.035 0.1444 0.282 0.1444
1708772793.6534 0.282 0.035 0.1459 0.285 0.1459
1708772793.6611 0.286 0.036 0.1428 0.289 0.1428
1708772793.6691 0.289 0.036 0.1366 0.292 0.1366
1708772793.6772 0.292 0.037 0.1319 0.295 0.1319
1708772793.6848 0.295 0.037 0.1319 0.298 0.1319
1708772793.6924 0.298 0.038 0.1350 0.301 0.1350
1708772793.7006 0.302 0.038 0.1350 0.305 0.1350
1708772793.7090 0.305 0.039 0.1273 0.308 0.1273
1708772793.7169 0.308 0.039 0.1226 0.311 0.1226
1708772793.7253 0.311 0.039 0.1242 0.314 0.1242
1708772793.7327 0.314 0.040 0.1273 0.317 0.1273
1708772793.7402 0.318 0.040 0.1257 0.321 0.1257
1708772793.7484 0.321 0.041 0.1211 0.324 0.1211
1708772793.7569 0.324 0.041 0.1164 0.327 0.1164
1708772793.7648 0.327 0.041 0.1180 0.330 0.1180
1708772793.7731 0.330 0.042 0.1211 0.333 0.1211
1708772793.7804 0.334 0.042 0.1164 0.337 0.1164
1708772793.7887 0.337 0.042 0.1102 0.340 0.1102
1708772793.7971 0.340 0.043 0.1071 0.343 0.1071
1708772793.8043 0.343 0.043 0.1102 0.346 0.1102
1708772793.8131 0.346 0.043 0.1102 0.349 0.1102
1708772793.8214 0.349 0.044 0.1071 0.352 0.1071
1708772793.8287 0.353 0.044 0.1009 0.356 0.1009
1708772793.8371 0.355 0.044 0.0993 0.359 0.0993
1708772793.8454 0.358 0.045 0.1024 0.362 0.1024
1708772793.8525 0.362 0.045 0.1040 0.365 0.1040
1708772793.8601 0.365 0.045 0.1009 0.368 0.1009
1708772793.8691 0.368 0.046 0.0931 0.371 0.0931
1708772793.8771 0.371 0.046 0.0900 0.374 0.0900
1708772793.8857 0.374 0.046 0.0931 0.378 0.0931
1708772793.8933 0.378 0.047 0.0931 0.381 0.0931
1708772793.9003 0.382 0.047 0.0916 0.385 0.0916
1708772793.9088 0.384 0.047 0.0885 0.388 0.0885
1708772793.9182 0.387 0.047 0.0854 0.390 0.0854
1708772793.9246 0.390 0.048 0.0885 0.394 0.0885
1708772793.9328 0.394 0.048 0.0869 0.398 0.0869
1708772793.9408 0.397 0.048 0.0838 0.401 0.0838
1708772793.9483 0.400 0.048 0.0823 0.403 0.0823
1708772793.9564 0.402 0.049 0.0807 0.406 0.0807
1708772793.9651 0.406 0.049 0.0776 0.409 0.0776
1708772793.9724 0.410 0.049 0.0761 0.413 0.0761
1708772793.9803 0.413 0.050 0.0761 0.417 0.0761
1708772793.9895 0.416 0.050 0.0745 0.419 0.0745
1708772793.9972 0.418 0.050 0.0714 0.422 0.0714
1708772794.0042 0.422 0.050 0.0699 0.425 0.0699
1708772794.0136 0.425 0.050 0.0683 0.429 0.0683
1708772794.0206 0.428 0.051 0.0683 0.432 0.0683
1708772794.0287 0.431 0.051 0.0667 0.435 0.0667
1708772794.0377 0.434 0.051 0.0636 0.438 0.0636
1708772794.0445 0.438 0.051 0.0605 0.442 0.0605
1708772794.0523 0.442 0.051 0.0621 0.445 0.0621
1708772794.0616 0.444 0.052 0.0590 0.447 0.0590
1708772794.0690 0.446 0.052 0.0574 0.450 0.0574
1708772794.0770 0.450 0.052 0.0543 0.453 0.0543
1708772794.0853 0.453 0.052 0.0543 0.457 0.0543
1708772794.0925 0.457 0.052 0.0559 0.460 0.0559
1708772794.1003 0.459 0.052 0.0574 0.463 0.0574
1708772794.1096 0.462 0.053 0.0543 0.466 0.0543
1708772794.1170 0.465 0.053 0.0497 0.469 0.0497
1708772794.1250 0.469 0.053 0.0481 0.473 0.0481
1708772794.1333 0.473 0.053 0.0481 0.476 0.0481
1708772794.1402 0.475 0.053 0.0481 0.479 0.0481
1708772794.1489 0.478 0.053 0.0466 0.481 0.0466
1708772794.1572 0.481 0.054 0.0450 0.485 0.0450
1708772794.1645 0.485 0.054 0.0435 0.488 0.0435
1708772794.1724 0.488 0.054 0.0435 0.492 0.0435
1708772794.1809 0.491 0.054 0.0435 0.495 0.0435
1708772794.1888 0.493 0.054 0.0419 0.497 0.0419
1708772794.1966 0.497 0.054 0.0404 0.501 0.0404
1708772794.2048 0.501 0.054 0.0419 0.505 0.0419
1708772794.2132 0.504 0.055 0.0404 0.508 0.0404
1708772794.2211 0.507 0.055 0.0404 0.510 0.0404
1708772794.2294 0.510 0.055 0.0419 0.514 0.0419
1708772794.2382 0.513 0.055 0.0404 0.517 0.0404
1708772794.2452 0.517 0.055 0.0373 0.521 0.0373
1708772794.2535 0.520 0.055 0.0357 0.524 0.0357
1708772794.2607 0.523 0.055 0.0373 0.526 0.0373
1708772794.2686 0.526 0.055 0.0388 0.529 0.0388
1708772794.2769 0.529 0.055 0.0373 0.533 0.0373
1708772794.2842 0.533 0.056 0.0326 0.536 0.0326
1708772794.2931 0.536 0.056 0.0295 0.539 0.0295
1708772794.3014 0.538 0.056 0.0341 0.542 0.0341
1708772794.3087 0.542 0.056 0.0388 0.546 0.0388
1708772794.3167 0.546 0.056 0.0341 0.549 0.0341
1708772794.3249 0.549 0.056 0.0310 0.552 0.0310
1708772794.3332 0.551 0.056 0.0279 0.555 0.0279
1708772794.3407 0.554 0.056 0.0295 0.558 0.0295
1708772794.3493 0.558 0.056 0.0310 0.562 0.0310
1708772794.3567 0.562 0.057 0.0295 0.565 0.0295
1708772794.3646 0.564 0.057 0.0279 0.568 0.0279
1708772794.3739 0.567 0.057 0.0279 0.571 0.0279
1708772794.3802 0.570 0.057 0.0279 0.574 0.0279
1708772794.3889 0.574 0.057 0.0279 0.577 0.0279
1708772794.3972 0.577 0.057 0.0279 0.581 0.0279
1708772794.4044 0.579 0.057 0.0279 0.583 0.0279
1708772794.4123 0.583 0.057 0.0264 0.586 0.0264
1708772794.4217 0.586 0.057 0.0279 0.590 0.0279
1708772794.4291 0.589 0.057 0.0264 0.593 0.0264
1708772794.4369 0.593 0.057 0.0248 0.596 0.0248
1708772794.4450 0.595 0.057 0.0233 0.599 0.0233
1708772794.4523 0.599 0.058 0.0264 0.602 0.0264
1708772794.4602 0.602 0.058 0.0264 0.606 0.0264
1708772794.4694 0.605 0.058 0.0233 0.609 0.0233
1708772794.4767 0.608 0.058 0.0202 0.612 0.0202
1708772794.4846 0.612 0.058 0.0186 0.615 0.0186
1708772794.4928 0.615 0.058 0.0233 0.618 0.0233
1708772794.5004 0.618 0.058 0.0248 0.621 0.0248
1708772794.5087 0.621 0.058 0.0248 0.624 0.0248
1708772794.5170 0.624 0.058 0.0217 0.628 0.0217
1708772794.5244 0.628 0.058 0.0202 0.631 0.0202
1708772794.5322 0.631 0.058 0.0233 0.635 0.0233
1708772794.5413 0.634 0.058 0.0233 0.637 0.0233
1708772794.5486 0.636 0.058 0.0217 0.640 0.0217
1708772794.5563 0.640 0.058 0.0186 0.643 0.0186
1708772794.5657 0.643 0.059 0.0233 0.647 0.0233
1708772794.5731 0.646 0.059 0.0264 0.650 0.0264
1708772794.5811 0.650 0.059 0.0217 0.653 0.0217
1708772794.5890 0.653 0.059 0.0202 0.657 0.0202
1708772794.5972 0.656 0.059 0.0248 0.660 0.0248
1708772794.6051 0.659 0.059 0.0295 0.663 0.0295
1708772794.6134 0.662 0.059 0.0279 0.666 0.0279
1708772794.6206 0.666 0.059 0.0233 0.669 0.0233
1708772794.6286 0.669 0.059 0.0248 0.673 0.0248
1708772794.6376 0.672 0.059 0.0295 0.676 0.0295
1708772794.6449 0.675 0.059 0.0310 0.679 0.0310
1708772794.6528 0.679 0.059 0.0310 0.682 0.0310
1708772794.6614 0.682 0.060 0.0310 0.685 0.0310
1708772794.6687 0.684 0.060 0.0326 0.688 0.0326
1708772794.6766 0.688 0.060 0.0341 0.692 0.0341
1708772794.6848 0.691 0.060 0.0373 0.695 0.0373
1708772794.6928 0.694 0.060 0.0373 0.698 0.0373
1708772794.7007 0.697 0.060 0.0373 0.701 0.0373
1708772794.7090 0.700 0.060 0.0373 0.704 0.0373
1708772794.7164 0.704 0.060 0.0404 0.708 0.0404
1708772794.7243 0.708 0.061 0.0435 0.711 0.0435
1708772794.7335 0.710 0.061 0.0450 0.714 0.0450
1708772794.7403 0.713 0.061 0.0450 0.716 0.0450
1708772794.7482 0.716 0.061 0.0450 0.720 0.0450
1708772794.7576 0.720 0.061 0.0497 0.723 0.0497
1708772794.7649 0.723 0.061 0.0559 0.726 0.0559
1708772794.7727 0.726 0.061 0.0559 0.730 0.0559
1708772794.7811 0.729 0.062 0.0528 0.733 0.0528
1708772794.7891 0.732 0.062 0.0559 0.736 0.0559
1708772794.7970 0.735 0.062 0.0636 0.739 0.0636
1708772794.8054 0.739 0.062 0.0667 0.743 0.0667
1708772794.8132 0.742 0.062 0.0667 0.746 0.0667
1708772794.8211 0.746 0.063 0.0667 0.749 0.0667
1708772794.8293 0.749 0.063 0.0699 0.752 0.0699
1708772794.8372 0.751 0.063 0.0776 0.755 0.0776
1708772794.8452 0.755 0.063 0.0792 0.758 0.0792
1708772794.8536 0.758 0.064 0.0761 0.762 0.0761
1708772794.8611 0.761 0.064 0.0776 0.765 0.0776
1708772794.8689 0.764 0.064 0.0838 0.768 0.0838
1708772794.8771 0.767 0.064 0.0885 0.771 0.0885
1708772794.8844 0.770 0.065 0.0900 0.774 0.0900
1708772794.8922 0.774 0.065 0.0900 0.777 0.0900
1708772794.9016 0.777 0.065 0.0931 0.781 0.0931
1708772794.9088 0.780 0.065 0.0978 0.784 0.0978
1708772794.9165 0.783 0.066 0.1009 0.787 0.1009
1708772794.9248 0.786 0.066 0.1009 0.790 0.1009
1708772794.9331 0.790 0.066 0.1009 0.794 0.1009
1708772794.9409 0.793 0.067 0.1056 0.797 0.1056
1708772794.9488 0.796 0.067 0.1118 0.800 0.1118
1708772794.9571 0.799 0.067 0.1118 0.803 0.1118
1708772794.9642 0.802 0.068 0.1102 0.806 0.1102
1708772794.9735 0.805 0.068 0.1118 0.809 0.1118
1708772794.9809 0.809 0.069 0.1164 0.813 0.1164
1708772794.9887 0.812 0.069 0.1226 0.816 0.1226
1708772794.9969 0.815 0.069 0.1226 0.819 0.1226
1708772795.0045 0.818 0.070 0.1211 0.822 0.1211
1708772795.0126 0.821 0.070 0.1242 0.825 0.1242
1708772795.0209 0.825 0.070 0.1304 0.829 0.1304
1708772795.0284 0.828 0.071 0.1335 0.832 0.1335
1708772795.0370 0.831 0.071 0.1335 0.835 0.1335
1708772795.0454 0.834 0.072 0.1350 0.838 0.1350
1708772795.0527 0.837 0.072 0.1413 0.841 0.1413
1708772795.0608 0.840 0.073 0.1459 0.845 0.1459
1708772795.0696 0.844 0.073 0.1459 0.848 0.1459
1708772795.0768 0.847 0.074 0.1459 0.851 0.1459
1708772795.0846 0.850 0.074 0.1490 0.854 0.1490
1708772795.0936 0.853 0.075 0.1568 0.857 0.1568
1708772795.1009 0.856 0.075 0.1583 0.860 0.1583
1708772795.1088 0.859 0.076 0.1583 0.864 0.1583
1708772795.1170 0.862 0.076 0.1599 0.867 0.1599
1708772795.1242 0.865 0.076 0.1645 0.869 0.1645
1708772795.1332 0.868 0.077 0.1692 0.873 0.1692
1708772795.1409 0.872 0.078 0.1661 0.876 0.1661
1708772795.1482 0.875 0.078 0.1630 0.880 0.1630
1708772795.1562 0.878 0.079 0.1676 0.883 0.1676
1708772795.1656 0.881 0.079 0.1754 0.886 0.1754
1708772795.1728 0.884 0.080 0.1785 0.889 0.1785
1708772795.1807 0.887 0.080 0.1770 0.892 0.1770
1708772795.1895 0.891 0.081 0.1785 0.896 0.1785
1708772795.1967 0.894 0.081 0.1816 0.899 0.1816
1708772795.2045 0.897 0.082 0.1878 0.902 0.1878
1708772795.2128 0.900 0.083 0.1878 0.905 0.1878
1708772795.2211 0.903 0.083 0.1863 0.908 0.1863
1708772795.2282 0.906 0.084 0.1894 0.911 0.1894
1708772795.2375 0.909 0.084 0.1940 0.915 0.1940
1708772795.2448 0.912 0.085 0.1971 0.918 0.1971
1708772795.2527 0.916 0.086 0.1956 0.921 0.1956
1708772795.2610 0.919 0.086 0.1971 0.924 0.1971
1708772795.2684 0.922 0.087 0.1987 0.927 0.1987
1708772795.2772 0.925 0.088 0.2018 0.931 0.2018
1708772795.2855 0.928 0.088 0.2033 0.934 0.2033
1708772795.2925 0.932 0.089 0.2033 0.938 0.2033
1708772795.3004 0.934 0.090 0.2049 0.940 0.2049
1708772795.3097 0.937 0.090 0.2049 0.943 0.2049
1708772795.3180 0.940 0.091 0.2064 0.946 0.2064
1708772795.3250 0.944 0.092 0.2096 0.950 0.2096
1708772795.3333 0.947 0.092 0.2080 0.954 0.2080
1708772795.3412 0.950 0.093 0.2096 0.956 0.2096
1708772795.3491 0.952 0.093 0.2127 0.959 0.2127
1708772795.3573 0.956 0.094 0.2127 0.962 0.2127
1708772795.3645 0.959 0.095 0.2111 0.966 0.2111
1708772795.3724 0.962 0.095 0.2096 0.969 0.2096
1708772795.3818 0.965 0.096 0.2111 0.971 0.2111
1708772795.3887 0.968 0.097 0.2127 0.974 0.2127
1708772795.3966 0.972 0.098 0.2127 0.979 0.2127
1708772795.4048 0.975 0.098 0.2127 0.982 0.2127
1708772795.4123 0.978 0.099 0.2111 0.984 0.2111
1708772795.4203 0.980 0.099 0.2096 0.987 0.2096
1708772795.4296 0.984 0.100 0.2080 0.991 0.2080
1708772795.4375 0.987 0.101 0.2064 0.994 0.2064
1708772795.4453 0.991 0.102 0.2064 0.998 0.2064
1708772795.4536 0.994 0.102 0.2049 1.001 0.2049
1708772795.4609 0.996 0.103 0.2033 1.004 0.2033
1708772795.4687 0.999 0.103 0.2002 1.007 0.2002
1708772795.4770 1.003 0.104 0.1987 1.010 0.1987
1708772795.4849 1.006 0.105 0.2018 1.014 0.2018
1708772795.4927 1.009 0.105 0.2049 1.017 0.2049
1708772795.5008 1.012 0.106 0.2002 1.019 0.2002
1708772795.5091 1.015 0.106 0.1925 1.023 0.1925
1708772795.5163 1.018 0.107 0.1940 1.026 0.1940
1708772795.5258 1.021 0.108 0.1987 1.029 0.1987
1708772795.5330 1.024 0.108 0.2002 1.032 0.2002
1708772795.5408 1.028 0.109 0.1956 1.035 0.1956
1708772795.5490 1.030 0.110 0.1909 1.038 0.1909
1708772795.5562 1.033 0.110 0.1925 1.041 0.1925
1708772795.5642 1.037 0.111 0.1940 1.045 0.1940
1708772795.5737 1.040 0.111 0.1940 1.048 0.1940
1708772795.5811 1.043 0.112 0.1878 1.051 0.1878
1708772795.5887 1.046 0.113 0.1863 1.055 0.1863
1708772795.5973 1.049 0.113 0.1894 1.058 0.1894
1708772795.6046 1.052 0.114 0.1894 1.061 0.1894
1708772795.6125 1.055 0.114 0.1863 1.064 0.1863
1708772795.6209 1.058 0.115 0.1816 1.067 0.1816
1708772795.6282 1.062 0.116 0.1847 1.070 0.1847
1708772795.6377 1.065 0.116 0.1863 1.074 0.1863
1708772795.6449 1.068 0.117 0.1847 1.076 0.1847
1708772795.6522 1.071 0.117 0.1801 1.080 0.1801
1708772795.6602 1.075 0.118 0.1801 1.083 0.1801
1708772795.6696 1.077 0.118 0.1832 1.086 0.1832
1708772795.6780 1.080 0.119 0.1832 1.089 0.1832
1708772795.6848 1.084 0.120 0.1801 1.092 0.1801
1708772795.6938 1.087 0.120 0.1770 1.096 0.1770
1708772795.7012 1.090 0.121 0.1785 1.099 0.1785
1708772795.7091 1.093 0.121 0.1801 1.102 0.1801
1708772795.7174 1.096 0.122 0.1785 1.105 0.1785
1708772795.7245 1.099 0.122 0.1754 1.108 0.1754
1708772795.7324 1.102 0.123 0.1707 1.112 0.1707
1708772795.7414 1.105 0.123 0.1723 1.114 0.1723
1708772795.7487 1.108 0.124 0.1754 1.117 0.1754
1708772795.7567 1.112 0.125 0.1754 1.121 0.1754
1708772795.7649 1.115 0.125 0.1723 1.125 0.1723
1708772795.7724 1.118 0.126 0.1676 1.127 0.1676
1708772795.7803 1.121 0.126 0.1676 1.130 0.1676
1708772795.7895 1.124 0.127 0.1707 1.133 0.1707
1708772795.7968 1.128 0.127 0.1723 1.137 0.1723
1708772795.8048 1.131 0.128 0.1676 1.141 0.1676
1708772795.8129 1.133 0.128 0.1630 1.143 0.1630
1708772795.8202 1.136 0.129 0.1630 1.146 0.1630
1708772795.8282 1.139 0.129 0.1645 1.149 0.1645
1708772795.8384 1.143 0.130 0.1645 1.153 0.1645
1708772795.8446 1.146 0.130 0.1599 1.156 0.1599
1708772795.8525 1.149 0.131 0.1599 1.159 0.1599
1708772795.8617 1.152 0.131 0.1614 1.161 0.1614
1708772795.8690 1.154 0.132 0.1599 1.164 0.1599
1708772795.8769 1.158 0.132 0.1599 1.168 0.1599
1708772795.8854 1.162 0.133 0.1583 1.172 0.1583
1708772795.8925 1.164 0.133 0.1568 1.174 0.1568
1708772795.9003 1.167 0.134 0.1568 1.177 0.1568
1708772795.9094 1.171 0.134 0.1552 1.181 0.1552
1708772795.9167 1.174 0.135 0.1537 1.184 0.1537
1708772795.9246 1.178 0.135 0.1521 1.188 0.1521
1708772795.9330 1.181 0.136 0.1521 1.191 0.1521
1708772795.9409 1.183 0.136 0.1521 1.193 0.1521
1708772795.9485 1.186 0.137 0.1506 1.197 0.1506
1708772795.9568 1.190 0.137 0.1490 1.200 0.1490
1708772795.9652 1.193 0.138 0.1490 1.203 0.1490
1708772795.9730 1.196 0.138 0.1475 1.206 0.1475
1708772795.9813 1.199 0.139 0.1459 1.210 0.1459
1708772795.9883 1.203 0.139 0.1444 1.213 0.1444
1708772795.9972 1.206 0.140 0.1459 1.216 0.1459
1708772796.0054 1.208 0.140 0.1475 1.219 0.1475
1708772796.0128 1.211 0.140 0.1444 1.222 0.1444
1708772796.0207 1.215 0.141 0.1428 1.226 0.1428
1708772796.0289 1.218 0.141 0.1428 1.229 0.1428
1708772796.0378 1.221 0.142 0.1413 1.232 0.1413
1708772796.0448 1.224 0.142 0.1382 1.235 0.1382
1708772796.0531 1.227 0.143 0.1366 1.238 0.1366
1708772796.0604 1.230 0.143 0.1382 1.241 0.1382
1708772796.0683 1.234 0.144 0.1397 1.245 0.1397
