% Pose without folding and reset (log_20240224_142821.952/log_pose_abs.txt)
% 1 	Time (sec)
% 2,3 	Position x,y (m)
% 4 	heading (rad)
% 5 	Driven distance (m) - signed
% 6 	Turned angle (rad) - signed
1708781302.8545 0.000 0.000 0.0000 0.000 0.0000
1708781302.8624 0.000 0.000 0.0000 0.000 0.0000
1708781302.8698 0.003 0.000 0.0031 0.003 0.0031
1708781302.8773 0.005 0.000 0.0047 0.005 0.0047
1708781302.8853 0.005 0.000 0.0047 0.005 0.0047
1708781302.8933 0.004 0.000 0.0016 0.004 0.0016
1708781302.9019 0.003 0.000 -0.0000 0.003 -0.0000
1708781302.9099 0.003 0.000 -0.0016 0.003 -0.0016
1708781302.9173 0.003 0.000 -0.0031 0.003 -0.0031
1708781302.9263 0.003 0.000 -0.0047 0.003 -0.0047
1708781302.9340 0.003 0.000 -0.0047 0.003 -0.0047
1708781302.9417 0.003 0.000 -0.0047 0.003 -0.0047
1708781302.9508 0.003 0.000 -0.0047 0.003 -0.0047
1708781302.9593 0.003 0.000 -0.0047 0.003 -0.0047
1708781302.9673 0.003 0.000 -0.0047 0.003 -0.0047
1708781302.9748 0.003 0.000 -0.0047 0.003 -0.0047
1708781302.9826 0.006 -0.000 -0.0062 0.006 -0.0062
1708781302.9902 0.011 -0.000 -0.0078 0.011 -0.0078
1708781302.9984 0.017 -0.000 -0.0078 0.017 -0.0078
1708781303.0069 0.022 -0.000 -0.0031 0.022 -0.0031
1708781303.0140 0.027 -0.000 0.0000 0.027 0.0000
1708781303.0219 0.031 -0.000 0.0000 0.031 0.0000
1708781303.0316 0.036 -0.000 0.0000 0.036 0.0000
1708781303.0386 0.042 -0.000 0.0000 0.042 0.0000
1708781303.0468 0.048 -0.000 -0.0016 0.048 -0.0016
1708781303.0546 0.054 -0.000 -0.0031 0.054 -0.0031
1708781303.0619 0.059 -0.000 -0.0031 0.059 -0.0031
1708781303.0703 0.064 -0.000 -0.0016 0.064 -0.0016
1708781303.0792 0.070 -0.000 -0.0016 0.070 -0.0016
1708781303.0869 0.076 -0.000 -0.0031 0.076 -0.0031
1708781303.0947 0.083 -0.000 -0.0031 0.083 -0.0031
1708781303.1026 0.089 -0.000 -0.0031 0.089 -0.0031
1708781303.1102 0.094 -0.000 -0.0047 0.094 -0.0047
1708781303.1183 0.100 -0.000 -0.0031 0.100 -0.0031
1708781303.1273 0.106 -0.000 -0.0047 0.106 -0.0047
1708781303.1349 0.113 -0.000 -0.0031 0.113 -0.0031
1708781303.1427 0.120 -0.000 -0.0031 0.120 -0.0031
1708781303.1506 0.125 -0.000 -0.0047 0.125 -0.0047
1708781303.1583 0.131 -0.000 -0.0047 0.131 -0.0047
1708781303.1660 0.137 -0.000 -0.0031 0.137 -0.0031
1708781303.1749 0.144 -0.000 -0.0031 0.144 -0.0031
1708781303.1825 0.150 -0.000 -0.0031 0.150 -0.0031
1708781303.1900 0.156 -0.000 -0.0047 0.156 -0.0047
1708781303.1993 0.162 -0.001 -0.0062 0.162 -0.0062
1708781303.2059 0.168 -0.001 -0.0047 0.168 -0.0047
1708781303.2146 0.174 -0.001 -0.0031 0.174 -0.0031
1708781303.2235 0.180 -0.001 -0.0031 0.180 -0.0031
1708781303.2308 0.187 -0.001 -0.0031 0.187 -0.0031
1708781303.2386 0.194 -0.001 -0.0062 0.194 -0.0062
1708781303.2464 0.200 -0.001 -0.0031 0.200 -0.0031
1708781303.2539 0.206 -0.001 -0.0031 0.206 -0.0031
1708781303.2623 0.212 -0.001 -0.0047 0.212 -0.0047
1708781303.2712 0.218 -0.001 -0.0047 0.218 -0.0047
1708781303.2785 0.225 -0.001 -0.0047 0.225 -0.0047
1708781303.2863 0.232 -0.001 -0.0047 0.232 -0.0047
1708781303.2949 0.238 -0.001 -0.0031 0.238 -0.0031
1708781303.3025 0.244 -0.001 0.0000 0.244 0.0000
1708781303.3109 0.250 -0.001 -0.0016 0.250 -0.0016
1708781303.3187 0.256 -0.001 -0.0062 0.256 -0.0062
1708781303.3267 0.263 -0.001 -0.0078 0.263 -0.0078
1708781303.3360 0.270 -0.001 -0.0047 0.270 -0.0047
1708781303.3434 0.276 -0.001 -0.0016 0.276 -0.0016
1708781303.3510 0.283 -0.001 -0.0016 0.283 -0.0016
1708781303.3584 0.289 -0.001 0.0000 0.289 0.0000
1708781303.3666 0.295 -0.001 0.0000 0.295 0.0000
1708781303.3739 0.301 -0.001 -0.0016 0.301 -0.0016
1708781303.3819 0.307 -0.001 0.0000 0.307 0.0000
1708781303.3935 0.313 -0.001 -0.0016 0.313 -0.0016
1708781303.3979 0.320 -0.001 -0.0047 0.320 -0.0047
1708781303.4059 0.326 -0.001 -0.0062 0.326 -0.0062
1708781303.4153 0.331 -0.001 -0.0047 0.331 -0.0047
1708781303.4224 0.336 -0.001 -0.0031 0.336 -0.0031
1708781303.4302 0.342 -0.001 -0.0031 0.342 -0.0031
1708781303.4391 0.349 -0.001 -0.0031 0.349 -0.0031
1708781303.4459 0.356 -0.001 -0.0047 0.356 -0.0047
1708781303.4546 0.362 -0.001 -0.0047 0.362 -0.0047
1708781303.4637 0.367 -0.001 -0.0031 0.367 -0.0031
1708781303.4699 0.373 -0.001 -0.0031 0.373 -0.0031
1708781303.4787 0.380 -0.001 -0.0016 0.380 -0.0016
1708781303.4873 0.386 -0.001 -0.0016 0.386 -0.0016
1708781303.4948 0.392 -0.001 -0.0031 0.392 -0.0031
1708781303.5025 0.399 -0.001 -0.0031 0.399 -0.0031
1708781303.5108 0.405 -0.001 -0.0047 0.405 -0.0047
1708781303.5183 0.411 -0.001 -0.0047 0.411 -0.0047
1708781303.5260 0.417 -0.001 -0.0047 0.417 -0.0047
1708781303.5346 0.424 -0.001 -0.0047 0.424 -0.0047
1708781303.5421 0.430 -0.001 -0.0047 0.430 -0.0047
1708781303.5504 0.436 -0.001 -0.0031 0.436 -0.0031
1708781303.5590 0.443 -0.001 -0.0031 0.443 -0.0031
1708781303.5660 0.449 -0.002 -0.0078 0.449 -0.0078
1708781303.5747 0.456 -0.002 -0.0093 0.456 -0.0093
1708781303.5833 0.462 -0.002 -0.0062 0.462 -0.0062
1708781303.5906 0.468 -0.002 -0.0031 0.468 -0.0031
1708781303.5986 0.475 -0.002 -0.0047 0.475 -0.0047
1708781303.6072 0.481 -0.002 -0.0047 0.481 -0.0047
1708781303.6143 0.487 -0.002 -0.0062 0.487 -0.0062
1708781303.6219 0.493 -0.002 -0.0062 0.493 -0.0062
1708781303.6306 0.500 -0.002 -0.0062 0.500 -0.0062
1708781303.6389 0.506 -0.002 -0.0062 0.506 -0.0062
1708781303.6465 0.513 -0.002 -0.0062 0.513 -0.0062
1708781303.6553 0.520 -0.002 -0.0062 0.520 -0.0062
1708781303.6621 0.526 -0.002 -0.0047 0.526 -0.0047
1708781303.6775 0.532 -0.002 -0.0031 0.532 -0.0031
1708781303.6824 0.538 -0.002 -0.0031 0.538 -0.0031
1708781303.6869 0.544 -0.002 -0.0016 0.544 -0.0016
1708781303.6939 0.550 -0.002 -0.0016 0.550 -0.0016
1708781303.7027 0.553 -0.002 0.0000 0.553 0.0000
1708781303.7108 0.558 -0.002 0.0000 0.558 0.0000
1708781303.7184 0.565 -0.002 -0.0031 0.565 -0.0031
1708781303.7269 0.572 -0.002 -0.0016 0.572 -0.0016
1708781303.7344 0.578 -0.002 -0.0016 0.578 -0.0016
1708781303.7420 0.584 -0.002 -0.0016 0.584 -0.0016
1708781303.7507 0.590 -0.002 -0.0016 0.590 -0.0016
1708781303.7581 0.596 -0.002 -0.0016 0.596 -0.0016
1708781303.7663 0.603 -0.002 -0.0031 0.603 -0.0031
1708781303.7748 0.609 -0.002 -0.0047 0.609 -0.0047
1708781303.7823 0.616 -0.002 -0.0016 0.616 -0.0016
1708781303.7900 0.622 -0.002 -0.0016 0.622 -0.0016
1708781303.7987 0.628 -0.002 -0.0031 0.628 -0.0031
1708781303.8062 0.634 -0.002 -0.0031 0.634 -0.0031
1708781303.8143 0.641 -0.002 -0.0031 0.641 -0.0031
1708781303.8230 0.647 -0.002 -0.0031 0.647 -0.0031
1708781303.8304 0.653 -0.002 -0.0047 0.653 -0.0047
1708781303.8379 0.660 -0.002 -0.0047 0.660 -0.0047
1708781303.8474 0.666 -0.002 -0.0031 0.666 -0.0031
1708781303.8539 0.672 -0.002 -0.0031 0.672 -0.0031
1708781303.8620 0.678 -0.002 -0.0047 0.678 -0.0047
1708781303.8708 0.685 -0.002 -0.0031 0.685 -0.0031
1708781303.8782 0.691 -0.002 -0.0062 0.691 -0.0062
1708781303.8859 0.698 -0.002 -0.0047 0.698 -0.0047
1708781303.8945 0.704 -0.002 -0.0031 0.704 -0.0031
1708781303.9020 0.710 -0.003 -0.0016 0.710 -0.0016
1708781303.9111 0.716 -0.003 -0.0031 0.716 -0.0031
1708781303.9189 0.723 -0.003 -0.0062 0.723 -0.0062
1708781303.9264 0.730 -0.003 -0.0078 0.730 -0.0078
1708781303.9341 0.736 -0.003 -0.0078 0.736 -0.0078
1708781303.9429 0.742 -0.003 -0.0062 0.742 -0.0062
1708781303.9501 0.748 -0.003 -0.0062 0.748 -0.0062
1708781303.9587 0.754 -0.003 -0.0062 0.754 -0.0062
