% Pose without folding and reset (log_20240308_171715.252/log_pose_abs.txt)
% 1 	Time (sec)
% 2,3 	Position x,y (m)
% 4 	heading (rad)
% 5 	Driven distance (m) - signed
% 6 	Turned angle (rad) - signed
1709914635.9586 0.000 0.000 0.0000 0.000 0.0000
1709914635.9664 0.000 0.000 0.0000 0.000 0.0000
1709914635.9735 0.000 0.000 0.0000 0.000 0.0000
1709914635.9820 0.000 0.000 0.0000 0.000 0.0000
1709914635.9894 0.000 0.000 0.0000 0.000 0.0000
1709914635.9981 0.000 0.000 0.0000 0.000 0.0000
1709914636.0059 0.000 0.000 0.0000 0.000 0.0000
1709914636.0133 0.000 0.000 0.0000 0.000 0.0000
1709914636.0215 0.000 0.000 0.0000 0.000 0.0000
1709914636.0303 0.000 0.000 0.0000 0.000 0.0000
1709914636.0378 0.000 0.000 0.0000 0.000 0.0000
1709914636.0461 0.000 0.000 0.0000 0.000 0.0000
1709914636.0543 0.000 0.000 0.0000 0.000 0.0000
1709914636.0619 0.000 0.000 0.0000 0.000 0.0000
1709914636.0695 0.000 0.000 0.0000 0.000 0.0000
1709914636.0777 0.000 0.000 0.0000 0.000 0.0000
1709914636.0856 0.000 0.000 0.0000 0.000 0.0000
1709914636.0934 0.002 0.000 0.0000 0.002 0.0000
1709914636.1013 0.004 -0.000 -0.0031 0.004 -0.0031
1709914636.1099 0.005 -0.000 -0.0047 0.005 -0.0047
1709914636.1173 0.007 -0.000 -0.0109 0.007 -0.0109
1709914636.1262 0.008 -0.000 -0.0155 0.008 -0.0155
1709914636.1338 0.010 -0.000 -0.0171 0.010 -0.0171
1709914636.1416 0.012 -0.000 -0.0264 0.012 -0.0264
1709914636.1494 0.014 -0.000 -0.0373 0.014 -0.0373
1709914636.1579 0.017 -0.000 -0.0466 0.017 -0.0466
1709914636.1659 0.020 -0.000 -0.0559 0.020 -0.0559
1709914636.1735 0.022 -0.001 -0.0667 0.022 -0.0667
1709914636.1813 0.025 -0.001 -0.0792 0.025 -0.0792
1709914636.1901 0.028 -0.001 -0.0931 0.028 -0.0931
1709914636.1980 0.031 -0.001 -0.1071 0.031 -0.1071
1709914636.2066 0.034 -0.002 -0.1211 0.034 -0.1211
1709914636.2144 0.037 -0.002 -0.1350 0.037 -0.1350
1709914636.2218 0.040 -0.003 -0.1537 0.041 -0.1537
1709914636.2306 0.044 -0.003 -0.1692 0.044 -0.1692
1709914636.2385 0.047 -0.004 -0.1832 0.047 -0.1832
1709914636.2461 0.050 -0.004 -0.2002 0.050 -0.2002
1709914636.2538 0.053 -0.005 -0.2142 0.053 -0.2142
1709914636.2616 0.056 -0.006 -0.2313 0.056 -0.2313
1709914636.2701 0.059 -0.006 -0.2484 0.059 -0.2484
1709914636.2777 0.062 -0.007 -0.2670 0.063 -0.2670
1709914636.2856 0.065 -0.008 -0.2825 0.066 -0.2825
1709914636.2945 0.068 -0.009 -0.2949 0.069 -0.2949
1709914636.3021 0.071 -0.010 -0.3120 0.072 -0.3120
1709914636.3100 0.075 -0.011 -0.3306 0.076 -0.3306
1709914636.3186 0.078 -0.012 -0.3415 0.080 -0.3415
1709914636.3262 0.081 -0.013 -0.3508 0.083 -0.3508
1709914636.3342 0.084 -0.014 -0.3601 0.086 -0.3601
1709914636.3419 0.087 -0.016 -0.3710 0.089 -0.3710
1709914636.3507 0.090 -0.017 -0.3819 0.092 -0.3819
1709914636.3586 0.093 -0.018 -0.3881 0.096 -0.3881
1709914636.3662 0.096 -0.019 -0.3943 0.099 -0.3943
1709914636.3739 0.099 -0.021 -0.3974 0.102 -0.3974
1709914636.3819 0.102 -0.022 -0.3989 0.105 -0.3989
1709914636.3898 0.105 -0.023 -0.3989 0.108 -0.3989
1709914636.3985 0.108 -0.024 -0.3974 0.112 -0.3974
1709914636.4066 0.111 -0.025 -0.3927 0.115 -0.3927
1709914636.4146 0.114 -0.027 -0.3850 0.118 -0.3850
1709914636.4220 0.117 -0.028 -0.3772 0.121 -0.3772
1709914636.4298 0.120 -0.029 -0.3679 0.125 -0.3679
1709914636.4378 0.123 -0.030 -0.3555 0.128 -0.3555
1709914636.4465 0.126 -0.031 -0.3430 0.131 -0.3430
1709914636.4542 0.129 -0.032 -0.3244 0.134 -0.3244
1709914636.4626 0.132 -0.033 -0.3058 0.137 -0.3058
1709914636.4697 0.135 -0.034 -0.2872 0.141 -0.2872
1709914636.4786 0.138 -0.035 -0.2670 0.144 -0.2670
1709914636.4864 0.141 -0.036 -0.2468 0.147 -0.2468
1709914636.4940 0.144 -0.037 -0.2266 0.150 -0.2266
1709914636.5020 0.147 -0.037 -0.2064 0.153 -0.2064
1709914636.5098 0.150 -0.038 -0.1847 0.156 -0.1847
1709914636.5180 0.154 -0.039 -0.1661 0.160 -0.1661
1709914636.5261 0.157 -0.039 -0.1444 0.163 -0.1444
1709914636.5340 0.160 -0.039 -0.1211 0.166 -0.1211
1709914636.5417 0.163 -0.040 -0.1009 0.169 -0.1009
1709914636.5505 0.166 -0.040 -0.0792 0.173 -0.0792
1709914636.5583 0.170 -0.040 -0.0590 0.176 -0.0590
1709914636.5665 0.174 -0.040 -0.0357 0.180 -0.0357
1709914636.5744 0.177 -0.041 -0.0124 0.183 -0.0124
1709914636.5823 0.181 -0.041 0.0140 0.187 0.0140
1709914636.5901 0.184 -0.040 0.0404 0.190 0.0404
1709914636.5979 0.187 -0.040 0.0652 0.193 0.0652
1709914636.6067 0.190 -0.040 0.0900 0.196 0.0900
1709914636.6143 0.193 -0.040 0.1164 0.199 0.1164
1709914636.6220 0.197 -0.039 0.1444 0.203 0.1444
1709914636.6300 0.200 -0.039 0.1707 0.206 0.1707
1709914636.6377 0.203 -0.038 0.1956 0.209 0.1956
1709914636.6456 0.206 -0.038 0.2189 0.212 0.2189
1709914636.6544 0.209 -0.037 0.2437 0.215 0.2437
1709914636.6622 0.212 -0.036 0.2685 0.219 0.2685
1709914636.6699 0.216 -0.035 0.2949 0.223 0.2949
1709914636.6777 0.219 -0.034 0.3151 0.226 0.3151
1709914636.6864 0.222 -0.033 0.3353 0.229 0.3353
1709914636.6942 0.225 -0.032 0.3601 0.232 0.3601
1709914636.7020 0.228 -0.031 0.3850 0.236 0.3850
1709914636.7097 0.232 -0.029 0.4082 0.239 0.4082
1709914636.7183 0.234 -0.028 0.4253 0.242 0.4253
1709914636.7260 0.237 -0.027 0.4439 0.245 0.4439
1709914636.7337 0.240 -0.025 0.4719 0.249 0.4719
1709914636.7424 0.243 -0.024 0.4921 0.252 0.4921
1709914636.7504 0.245 -0.022 0.5014 0.255 0.5014
1709914636.7581 0.248 -0.021 0.5107 0.258 0.5107
1709914636.7656 0.251 -0.019 0.5231 0.261 0.5231
1709914636.7746 0.254 -0.018 0.5355 0.264 0.5355
1709914636.7823 0.256 -0.016 0.5417 0.267 0.5417
1709914636.7901 0.259 -0.014 0.5464 0.271 0.5464
1709914636.7979 0.263 -0.012 0.5526 0.275 0.5526
1709914636.8061 0.265 -0.011 0.5573 0.277 0.5573
1709914636.8139 0.267 -0.009 0.5557 0.280 0.5557
1709914636.8225 0.270 -0.008 0.5526 0.283 0.5526
1709914636.8300 0.272 -0.006 0.5479 0.286 0.5479
1709914636.8379 0.275 -0.005 0.5433 0.289 0.5433
1709914636.8458 0.277 -0.003 0.5386 0.292 0.5386
1709914636.8546 0.280 -0.002 0.5247 0.295 0.5247
1709914636.8625 0.283 0.000 0.4998 0.299 0.4998
1709914636.8699 0.286 0.001 0.4796 0.302 0.4796
1709914636.8784 0.288 0.003 0.4688 0.304 0.4688
1709914636.8864 0.290 0.004 0.4579 0.307 0.4579
1709914636.8942 0.293 0.005 0.4393 0.310 0.4393
1709914636.9019 0.296 0.007 0.4160 0.313 0.4160
1709914636.9098 0.299 0.008 0.3927 0.317 0.3927
1709914636.9184 0.302 0.009 0.3725 0.319 0.3725
1709914636.9260 0.305 0.010 0.3524 0.322 0.3524
1709914636.9339 0.307 0.011 0.3306 0.325 0.3306
1709914636.9418 0.311 0.012 0.3042 0.329 0.3042
1709914636.9505 0.314 0.013 0.2810 0.332 0.2810
1709914636.9586 0.317 0.014 0.2608 0.335 0.2608
1709914636.9662 0.320 0.015 0.2406 0.339 0.2406
1709914636.9739 0.323 0.015 0.2189 0.342 0.2189
1709914636.9821 0.327 0.016 0.1956 0.345 0.1956
1709914636.9903 0.330 0.017 0.1692 0.349 0.1692
1709914636.9980 0.334 0.017 0.1428 0.353 0.1428
1709914637.0063 0.338 0.018 0.1226 0.356 0.1226
1709914637.0141 0.340 0.018 0.1056 0.359 0.1056
1709914637.0226 0.344 0.018 0.0823 0.362 0.0823
1709914637.0307 0.347 0.019 0.0543 0.366 0.0543
1709914637.0386 0.350 0.019 0.0264 0.369 0.0264
1709914637.0463 0.353 0.019 0.0031 0.372 0.0031
1709914637.0543 0.356 0.019 -0.0171 0.375 -0.0171
1709914637.0622 0.360 0.019 -0.0404 0.378 -0.0404
1709914637.0706 0.363 0.019 -0.0667 0.382 -0.0667
1709914637.0777 0.367 0.018 -0.0916 0.385 -0.0916
1709914637.0857 0.370 0.018 -0.1149 0.389 -0.1149
1709914637.0946 0.373 0.018 -0.1335 0.392 -0.1335
1709914637.1026 0.376 0.017 -0.1552 0.395 -0.1552
1709914637.1106 0.380 0.017 -0.1816 0.399 -0.1816
1709914637.1179 0.383 0.016 -0.2064 0.402 -0.2064
1709914637.1259 0.386 0.015 -0.2282 0.405 -0.2282
1709914637.1339 0.389 0.014 -0.2484 0.408 -0.2484
1709914637.1418 0.392 0.014 -0.2701 0.412 -0.2701
1709914637.1497 0.396 0.013 -0.2965 0.415 -0.2965
1709914637.1577 0.399 0.012 -0.3198 0.418 -0.3198
1709914637.1662 0.401 0.011 -0.3430 0.421 -0.3430
1709914637.1744 0.405 0.010 -0.3679 0.425 -0.3679
1709914637.1818 0.408 0.008 -0.3943 0.428 -0.3943
1709914637.1904 0.411 0.007 -0.4176 0.431 -0.4176
1709914637.1985 0.413 0.006 -0.4408 0.434 -0.4408
1709914637.2065 0.416 0.004 -0.4657 0.437 -0.4657
1709914637.2142 0.419 0.003 -0.4921 0.440 -0.4921
1709914637.2220 0.422 0.001 -0.5153 0.444 -0.5153
1709914637.2302 0.424 -0.000 -0.5386 0.446 -0.5386
1709914637.2378 0.427 -0.002 -0.5619 0.450 -0.5619
1709914637.2460 0.430 -0.004 -0.5868 0.453 -0.5868
1709914637.2540 0.433 -0.005 -0.6116 0.456 -0.6116
1709914637.2618 0.435 -0.007 -0.6333 0.459 -0.6333
1709914637.2706 0.437 -0.009 -0.6566 0.462 -0.6566
1709914637.2786 0.440 -0.011 -0.6768 0.465 -0.6768
1709914637.2864 0.442 -0.012 -0.6939 0.468 -0.6939
1709914637.2944 0.444 -0.015 -0.7063 0.471 -0.7063
1709914637.3023 0.447 -0.017 -0.7140 0.475 -0.7140
1709914637.3100 0.449 -0.019 -0.7218 0.478 -0.7218
1709914637.3176 0.451 -0.021 -0.7249 0.480 -0.7249
1709914637.3266 0.453 -0.022 -0.7234 0.483 -0.7234
1709914637.3343 0.455 -0.024 -0.7234 0.485 -0.7234
1709914637.3424 0.457 -0.025 -0.7202 0.488 -0.7202
1709914637.3503 0.459 -0.027 -0.7140 0.490 -0.7140
1709914637.3580 0.461 -0.029 -0.7032 0.493 -0.7032
1709914637.3656 0.463 -0.031 -0.6908 0.496 -0.6908
1709914637.3745 0.465 -0.033 -0.6814 0.499 -0.6814
1709914637.3825 0.468 -0.035 -0.6690 0.502 -0.6690
1709914637.3905 0.470 -0.037 -0.6535 0.505 -0.6535
1709914637.3985 0.473 -0.039 -0.6395 0.509 -0.6395
1709914637.4062 0.476 -0.041 -0.6287 0.512 -0.6287
1709914637.4143 0.479 -0.043 -0.6147 0.516 -0.6147
1709914637.4218 0.481 -0.045 -0.6023 0.519 -0.6023
1709914637.4296 0.484 -0.047 -0.5914 0.522 -0.5914
1709914637.4376 0.487 -0.048 -0.5790 0.525 -0.5790
1709914637.4456 0.489 -0.050 -0.5681 0.528 -0.5681
1709914637.4541 0.492 -0.052 -0.5604 0.532 -0.5604
1709914637.4621 0.495 -0.054 -0.5511 0.535 -0.5511
1709914637.4696 0.498 -0.055 -0.5402 0.539 -0.5402
1709914637.4785 0.501 -0.057 -0.5324 0.542 -0.5324
1709914637.4866 0.504 -0.059 -0.5262 0.545 -0.5262
1709914637.4947 0.507 -0.060 -0.5216 0.549 -0.5216
1709914637.5024 0.510 -0.062 -0.5153 0.552 -0.5153
1709914637.5105 0.512 -0.063 -0.5076 0.555 -0.5076
1709914637.5181 0.515 -0.065 -0.4998 0.558 -0.4998
1709914637.5258 0.517 -0.066 -0.4983 0.561 -0.4983
1709914637.5339 0.520 -0.068 -0.4952 0.564 -0.4952
1709914637.5419 0.523 -0.069 -0.4890 0.567 -0.4890
1709914637.5505 0.526 -0.071 -0.4843 0.570 -0.4843
1709914637.5577 0.529 -0.072 -0.4812 0.574 -0.4812
1709914637.5664 0.531 -0.074 -0.4828 0.577 -0.4828
1709914637.5741 0.534 -0.075 -0.4796 0.580 -0.4796
1709914637.5826 0.537 -0.077 -0.4765 0.583 -0.4765
1709914637.5905 0.540 -0.078 -0.4750 0.587 -0.4750
1709914637.5981 0.543 -0.080 -0.4765 0.590 -0.4765
1709914637.6064 0.545 -0.081 -0.4781 0.593 -0.4781
1709914637.6146 0.548 -0.082 -0.4765 0.596 -0.4765
1709914637.6221 0.551 -0.084 -0.4750 0.599 -0.4750
1709914637.6302 0.554 -0.086 -0.4765 0.603 -0.4765
1709914637.6382 0.557 -0.087 -0.4765 0.606 -0.4765
1709914637.6458 0.559 -0.088 -0.4781 0.608 -0.4781
1709914637.6540 0.563 -0.090 -0.4796 0.612 -0.4796
1709914637.6622 0.566 -0.092 -0.4796 0.615 -0.4796
1709914637.6697 0.568 -0.093 -0.4796 0.618 -0.4796
1709914637.6779 0.571 -0.094 -0.4812 0.621 -0.4812
1709914637.6859 0.574 -0.096 -0.4843 0.625 -0.4843
1709914637.6937 0.577 -0.097 -0.4828 0.628 -0.4828
1709914637.7019 0.580 -0.099 -0.4812 0.631 -0.4812
1709914637.7102 0.582 -0.100 -0.4812 0.634 -0.4812
1709914637.7187 0.585 -0.102 -0.4843 0.637 -0.4843
1709914637.7258 0.588 -0.103 -0.4859 0.641 -0.4859
1709914637.7341 0.591 -0.105 -0.4843 0.645 -0.4843
1709914637.7418 0.594 -0.106 -0.4812 0.647 -0.4812
1709914637.7499 0.596 -0.108 -0.4843 0.650 -0.4843
1709914637.7583 0.599 -0.109 -0.4874 0.653 -0.4874
1709914637.7657 0.602 -0.111 -0.4890 0.657 -0.4890
1709914637.7737 0.605 -0.112 -0.4843 0.660 -0.4843
1709914637.7818 0.608 -0.114 -0.4828 0.663 -0.4828
1709914637.7906 0.611 -0.115 -0.4843 0.666 -0.4843
1709914637.7986 0.614 -0.117 -0.4874 0.670 -0.4874
1709914637.8065 0.617 -0.118 -0.4890 0.673 -0.4890
1709914637.8141 0.620 -0.120 -0.4890 0.677 -0.4890
1709914637.8217 0.622 -0.121 -0.4874 0.679 -0.4874
1709914637.8298 0.625 -0.123 -0.4874 0.682 -0.4874
1709914637.8386 0.628 -0.124 -0.4905 0.685 -0.4905
1709914637.8466 0.631 -0.126 -0.4905 0.689 -0.4905
1709914637.8546 0.634 -0.127 -0.4905 0.693 -0.4905
1709914637.8623 0.637 -0.129 -0.4890 0.696 -0.4890
1709914637.8698 0.639 -0.130 -0.4890 0.698 -0.4890
1709914637.8777 0.641 -0.132 -0.4905 0.701 -0.4905
1709914637.8865 0.644 -0.133 -0.4905 0.705 -0.4905
1709914637.8936 0.647 -0.135 -0.4905 0.708 -0.4905
1709914637.9018 0.650 -0.136 -0.4905 0.711 -0.4905
1709914637.9106 0.653 -0.138 -0.4905 0.714 -0.4905
1709914637.9182 0.655 -0.139 -0.4905 0.717 -0.4905
1709914637.9262 0.659 -0.141 -0.4905 0.721 -0.4905
1709914637.9339 0.662 -0.142 -0.4921 0.724 -0.4921
1709914637.9420 0.664 -0.144 -0.4936 0.727 -0.4936
1709914637.9497 0.667 -0.145 -0.4921 0.730 -0.4921
1709914637.9587 0.670 -0.147 -0.4905 0.733 -0.4905
1709914637.9656 0.673 -0.148 -0.4905 0.737 -0.4905
1709914637.9738 0.675 -0.150 -0.4936 0.740 -0.4936
1709914637.9818 0.678 -0.151 -0.4952 0.743 -0.4952
1709914637.9897 0.681 -0.153 -0.4905 0.746 -0.4905
1709914637.9985 0.684 -0.154 -0.4874 0.749 -0.4874
1709914638.0059 0.687 -0.156 -0.4905 0.753 -0.4905
1709914638.0137 0.690 -0.157 -0.4952 0.756 -0.4952
1709914638.0221 0.692 -0.159 -0.4936 0.759 -0.4936
1709914638.0297 0.695 -0.160 -0.4874 0.762 -0.4874
1709914638.0386 0.698 -0.162 -0.4874 0.765 -0.4874
1709914638.0461 0.701 -0.163 -0.4905 0.768 -0.4905
1709914638.0536 0.704 -0.165 -0.4921 0.772 -0.4921
1709914638.0624 0.707 -0.166 -0.4890 0.775 -0.4890
1709914638.0697 0.709 -0.167 -0.4874 0.777 -0.4874
1709914638.0783 0.712 -0.169 -0.4859 0.781 -0.4859
1709914638.0861 0.715 -0.171 -0.4874 0.784 -0.4874
1709914638.0937 0.718 -0.172 -0.4890 0.788 -0.4890
1709914638.1024 0.721 -0.174 -0.4890 0.791 -0.4890
1709914638.1101 0.723 -0.175 -0.4859 0.793 -0.4859
1709914638.1184 0.726 -0.176 -0.4859 0.796 -0.4859
1709914638.1260 0.729 -0.178 -0.4859 0.800 -0.4859
1709914638.1338 0.732 -0.180 -0.4874 0.804 -0.4874
1709914638.1424 0.735 -0.181 -0.4859 0.807 -0.4859
1709914638.1500 0.737 -0.183 -0.4859 0.810 -0.4859
1709914638.1577 0.740 -0.184 -0.4859 0.813 -0.4859
1709914638.1661 0.743 -0.186 -0.4874 0.816 -0.4874
1709914638.1737 0.746 -0.187 -0.4859 0.820 -0.4859
1709914638.1824 0.749 -0.189 -0.4859 0.823 -0.4859
1709914638.1902 0.751 -0.190 -0.4874 0.825 -0.4874
1709914638.1978 0.754 -0.191 -0.4874 0.829 -0.4874
1709914638.2066 0.757 -0.193 -0.4874 0.832 -0.4874
1709914638.2142 0.760 -0.195 -0.4874 0.836 -0.4874
1709914638.2224 0.763 -0.196 -0.4859 0.839 -0.4859
1709914638.2301 0.765 -0.197 -0.4874 0.841 -0.4874
1709914638.2378 0.768 -0.199 -0.4874 0.845 -0.4874
1709914638.2465 0.771 -0.201 -0.4874 0.848 -0.4874
1709914638.2542 0.774 -0.202 -0.4859 0.852 -0.4859
1709914638.2620 0.777 -0.203 -0.4859 0.854 -0.4859
1709914638.2699 0.779 -0.205 -0.4859 0.857 -0.4859
1709914638.2777 0.782 -0.206 -0.4874 0.861 -0.4874
1709914638.2868 0.786 -0.208 -0.4859 0.864 -0.4859
1709914638.2944 0.788 -0.210 -0.4859 0.867 -0.4859
1709914638.3021 0.791 -0.211 -0.4859 0.870 -0.4859
1709914638.3100 0.794 -0.212 -0.4874 0.874 -0.4874
1709914638.3180 0.797 -0.214 -0.4859 0.877 -0.4859
1709914638.3267 0.799 -0.215 -0.4859 0.880 -0.4859
1709914638.3344 0.802 -0.217 -0.4874 0.883 -0.4874
1709914638.3420 0.805 -0.219 -0.4874 0.887 -0.4874
1709914638.3496 0.808 -0.220 -0.4859 0.890 -0.4859
1709914638.3584 0.810 -0.221 -0.4874 0.892 -0.4874
1709914638.3664 0.813 -0.223 -0.4874 0.896 -0.4874
1709914638.3741 0.817 -0.225 -0.4874 0.900 -0.4874
1709914638.3827 0.820 -0.226 -0.4874 0.903 -0.4874
1709914638.3905 0.822 -0.228 -0.4890 0.906 -0.4890
1709914638.3984 0.825 -0.229 -0.4890 0.909 -0.4890
1709914638.4058 0.828 -0.230 -0.4874 0.912 -0.4874
1709914638.4144 0.831 -0.232 -0.4874 0.915 -0.4874
1709914638.4217 0.833 -0.233 -0.4874 0.918 -0.4874
1709914638.4305 0.836 -0.235 -0.4874 0.921 -0.4874
1709914638.4380 0.839 -0.236 -0.4874 0.925 -0.4874
1709914638.4457 0.842 -0.238 -0.4874 0.928 -0.4874
1709914638.4539 0.845 -0.239 -0.4890 0.931 -0.4890
1709914638.4625 0.847 -0.241 -0.4905 0.934 -0.4905
1709914638.4698 0.850 -0.242 -0.4874 0.937 -0.4874
1709914638.4786 0.853 -0.244 -0.4890 0.941 -0.4890
1709914638.4861 0.856 -0.245 -0.4905 0.944 -0.4905
1709914638.4939 0.858 -0.247 -0.4890 0.947 -0.4890
1709914638.5017 0.861 -0.248 -0.4874 0.950 -0.4874
1709914638.5103 0.864 -0.250 -0.4874 0.953 -0.4874
1709914638.5187 0.867 -0.251 -0.4890 0.956 -0.4890
1709914638.5264 0.870 -0.253 -0.4890 0.960 -0.4890
1709914638.5340 0.873 -0.254 -0.4874 0.963 -0.4874
1709914638.5419 0.875 -0.256 -0.4859 0.966 -0.4859
1709914638.5497 0.878 -0.257 -0.4890 0.969 -0.4890
1709914638.5584 0.881 -0.259 -0.4890 0.972 -0.4890
1709914638.5657 0.884 -0.260 -0.4890 0.976 -0.4890
1709914638.5737 0.887 -0.262 -0.4874 0.979 -0.4874
1709914638.5824 0.889 -0.263 -0.4890 0.982 -0.4890
1709914638.5902 0.892 -0.265 -0.4905 0.985 -0.4905
1709914638.5980 0.895 -0.266 -0.4905 0.988 -0.4905
1709914638.6057 0.898 -0.268 -0.4874 0.991 -0.4874
1709914638.6146 0.900 -0.269 -0.4874 0.994 -0.4874
1709914638.6221 0.903 -0.270 -0.4905 0.997 -0.4905
1709914638.6305 0.906 -0.272 -0.4921 1.001 -0.4921
1709914638.6387 0.909 -0.274 -0.4905 1.004 -0.4905
1709914638.6464 0.912 -0.275 -0.4874 1.007 -0.4874
1709914638.6540 0.914 -0.277 -0.4874 1.010 -0.4874
1709914638.6618 0.917 -0.278 -0.4921 1.013 -0.4921
1709914638.6702 0.920 -0.280 -0.4921 1.017 -0.4921
1709914638.6787 0.924 -0.282 -0.4905 1.021 -0.4905
1709914638.6865 0.926 -0.283 -0.4874 1.024 -0.4874
1709914638.6942 0.929 -0.284 -0.4874 1.027 -0.4874
1709914638.7018 0.932 -0.286 -0.4921 1.030 -0.4921
1709914638.7106 0.935 -0.287 -0.4936 1.033 -0.4936
1709914638.7179 0.937 -0.289 -0.4921 1.036 -0.4921
1709914638.7263 0.940 -0.290 -0.4890 1.039 -0.4890
1709914638.7341 0.943 -0.292 -0.4921 1.042 -0.4921
1709914638.7418 0.946 -0.293 -0.4921 1.046 -0.4921
1709914638.7505 0.949 -0.295 -0.4890 1.049 -0.4890
1709914638.7582 0.952 -0.296 -0.4874 1.052 -0.4874
1709914638.7664 0.954 -0.298 -0.4890 1.055 -0.4890
1709914638.7740 0.957 -0.299 -0.4905 1.058 -0.4905
1709914638.7817 0.960 -0.301 -0.4905 1.061 -0.4905
1709914638.7906 0.962 -0.302 -0.4890 1.065 -0.4890
1709914638.7982 0.965 -0.304 -0.4874 1.068 -0.4874
1709914638.8063 0.968 -0.305 -0.4874 1.071 -0.4874
1709914638.8140 0.971 -0.307 -0.4890 1.074 -0.4890
1709914638.8222 0.974 -0.308 -0.4890 1.077 -0.4890
1709914638.8300 0.977 -0.310 -0.4874 1.081 -0.4874
1709914638.8377 0.980 -0.311 -0.4843 1.084 -0.4843
1709914638.8464 0.982 -0.313 -0.4859 1.087 -0.4859
1709914638.8542 0.985 -0.314 -0.4874 1.090 -0.4874
1709914638.8618 0.988 -0.316 -0.4859 1.094 -0.4859
1709914638.8700 0.991 -0.317 -0.4843 1.097 -0.4843
1709914638.8777 0.993 -0.319 -0.4859 1.100 -0.4859
1709914638.8866 0.996 -0.320 -0.4874 1.103 -0.4874
1709914638.8942 1.000 -0.322 -0.4890 1.107 -0.4890
1709914638.9017 1.003 -0.324 -0.4843 1.110 -0.4843
1709914638.9106 1.006 -0.325 -0.4843 1.113 -0.4843
1709914638.9177 1.008 -0.326 -0.4859 1.116 -0.4859
1709914638.9265 1.011 -0.328 -0.4859 1.120 -0.4859
1709914638.9342 1.014 -0.329 -0.4859 1.123 -0.4859
1709914638.9418 1.017 -0.331 -0.4843 1.126 -0.4843
1709914638.9500 1.019 -0.332 -0.4859 1.129 -0.4859
1709914638.9577 1.022 -0.334 -0.4859 1.132 -0.4859
1709914638.9659 1.025 -0.335 -0.4843 1.135 -0.4843
1709914638.9737 1.028 -0.337 -0.4843 1.139 -0.4843
1709914638.9825 1.031 -0.338 -0.4859 1.142 -0.4859
1709914638.9899 1.033 -0.340 -0.4890 1.145 -0.4890
1709914638.9977 1.036 -0.341 -0.4890 1.148 -0.4890
1709914639.0065 1.039 -0.343 -0.4859 1.151 -0.4859
1709914639.0141 1.042 -0.344 -0.4843 1.155 -0.4843
1709914639.0225 1.045 -0.346 -0.4890 1.158 -0.4890
1709914639.0303 1.048 -0.347 -0.4905 1.161 -0.4905
1709914639.0378 1.050 -0.349 -0.4905 1.164 -0.4905
1709914639.0467 1.053 -0.350 -0.4859 1.167 -0.4859
1709914639.0544 1.056 -0.352 -0.4890 1.170 -0.4890
1709914639.0620 1.059 -0.353 -0.4905 1.173 -0.4905
1709914639.0704 1.062 -0.355 -0.4874 1.177 -0.4874
1709914639.0782 1.064 -0.356 -0.4859 1.180 -0.4859
1709914639.0867 1.067 -0.357 -0.4859 1.183 -0.4859
