% Pose without folding and reset (log_20240224_142758.913/log_pose_abs.txt)
% 1 	Time (sec)
% 2,3 	Position x,y (m)
% 4 	heading (rad)
% 5 	Driven distance (m) - signed
% 6 	Turned angle (rad) - signed
1708781279.8571 0.000 0.000 0.0000 0.000 0.0000
1708781279.8652 0.000 0.000 0.0000 0.000 0.0000
1708781279.8733 0.000 0.000 0.0000 0.000 0.0000
1708781279.8803 0.000 0.000 0.0000 0.000 0.0000
1708781279.8887 0.000 0.000 0.0000 0.000 0.0000
1708781279.8966 0.000 0.000 0.0000 0.000 0.0000
1708781279.9037 0.000 0.000 0.0000 0.000 0.0000
1708781279.9128 0.000 0.000 0.0000 0.000 0.0000
1708781279.9198 0.000 0.000 0.0000 0.000 0.0000
1708781279.9283 0.000 0.000 0.0000 0.000 0.0000
1708781279.9359 0.000 0.000 0.0000 0.000 0.0000
1708781279.9445 0.000 0.000 0.0000 0.000 0.0000
1708781279.9527 0.000 0.000 0.0000 0.000 0.0000
1708781279.9609 0.000 0.000 0.0000 0.000 0.0000
1708781279.9679 0.000 0.000 0.0000 0.000 0.0000
1708781279.9758 0.000 0.000 0.0000 0.000 0.0000
1708781279.9839 0.000 0.000 0.0016 0.000 0.0016
1708781279.9923 0.003 0.000 0.0031 0.003 0.0031
1708781280.0122 0.007 0.000 -0.0016 0.007 -0.0016
1708781280.0147 0.009 0.000 -0.0047 0.009 -0.0047
1708781280.0298 0.011 -0.000 -0.0047 0.011 -0.0047
1708781280.0374 0.014 -0.000 -0.0016 0.014 -0.0016
1708781280.0389 0.018 -0.000 -0.0016 0.018 -0.0016
1708781280.0406 0.022 -0.000 0.0016 0.022 0.0016
1708781280.0481 0.025 -0.000 -0.0000 0.025 -0.0000
1708781280.0563 0.025 -0.000 0.0016 0.025 0.0016
1708781280.0645 0.028 -0.000 0.0047 0.028 0.0047
1708781280.0725 0.034 0.000 0.0062 0.034 0.0062
1708781280.0804 0.040 0.000 0.0016 0.040 0.0016
1708781280.0885 0.044 0.000 -0.0000 0.044 -0.0000
1708781280.0960 0.048 0.000 -0.0000 0.048 -0.0000
1708781280.1046 0.053 0.000 0.0031 0.053 0.0031
1708781280.1159 0.060 0.000 0.0062 0.060 0.0062
1708781280.1198 0.065 0.000 0.0078 0.065 0.0078
1708781280.1281 0.069 0.000 0.0031 0.069 0.0031
1708781280.1365 0.072 0.000 -0.0000 0.072 -0.0000
1708781280.1441 0.078 0.000 -0.0000 0.078 -0.0000
1708781280.1527 0.085 0.000 0.0016 0.085 0.0016
1708781280.1604 0.092 0.000 -0.0016 0.092 -0.0016
1708781280.1680 0.097 0.000 -0.0062 0.097 -0.0062
1708781280.1763 0.102 0.000 -0.0047 0.102 -0.0047
1708781280.1838 0.109 0.000 -0.0031 0.109 -0.0031
1708781280.1921 0.116 0.000 -0.0047 0.116 -0.0047
1708781280.2006 0.123 0.000 -0.0062 0.123 -0.0062
1708781280.2078 0.130 -0.000 -0.0047 0.130 -0.0047
1708781280.2164 0.136 -0.000 -0.0016 0.136 -0.0016
1708781280.2238 0.143 -0.000 -0.0000 0.143 -0.0000
1708781280.2322 0.150 -0.000 -0.0031 0.150 -0.0031
1708781280.2400 0.156 -0.000 -0.0031 0.156 -0.0031
1708781280.2483 0.162 -0.000 -0.0016 0.162 -0.0016
1708781280.2557 0.169 -0.000 -0.0016 0.169 -0.0016
1708781280.2642 0.176 -0.000 -0.0000 0.176 -0.0000
1708781280.2763 0.182 -0.000 -0.0000 0.182 -0.0000
1708781280.2803 0.189 -0.000 -0.0016 0.189 -0.0016
1708781280.2878 0.196 -0.000 -0.0016 0.196 -0.0016
1708781280.2974 0.200 -0.000 -0.0047 0.200 -0.0047
1708781280.3052 0.205 -0.000 -0.0047 0.205 -0.0047
1708781280.3118 0.212 -0.000 -0.0031 0.212 -0.0031
1708781280.3206 0.219 -0.000 -0.0031 0.219 -0.0031
1708781280.3279 0.225 -0.000 -0.0047 0.225 -0.0047
1708781280.3378 0.231 -0.000 -0.0016 0.231 -0.0016
1708781280.3450 0.237 -0.000 0.0031 0.237 0.0031
1708781280.3521 0.244 -0.000 0.0047 0.244 0.0047
1708781280.3600 0.251 -0.000 0.0016 0.251 0.0016
1708781280.3687 0.256 -0.000 -0.0000 0.256 -0.0000
1708781280.3758 0.262 -0.000 0.0016 0.262 0.0016
1708781280.3846 0.268 -0.000 0.0016 0.268 0.0016
1708781280.3917 0.275 -0.000 0.0016 0.275 0.0016
1708781280.3999 0.281 -0.000 -0.0000 0.281 -0.0000
1708781280.4095 0.287 -0.000 0.0016 0.287 0.0016
1708781280.4161 0.293 -0.000 0.0016 0.293 0.0016
1708781280.4242 0.300 -0.000 -0.0016 0.300 -0.0016
1708781280.4318 0.305 -0.000 -0.0016 0.305 -0.0016
1708781280.4398 0.311 -0.000 -0.0000 0.311 -0.0000
1708781280.4480 0.318 -0.000 -0.0000 0.318 -0.0000
1708781280.4566 0.324 -0.000 -0.0000 0.324 -0.0000
1708781280.4646 0.331 -0.000 -0.0016 0.331 -0.0016
1708781280.4718 0.337 -0.000 -0.0016 0.337 -0.0016
1708781280.4797 0.344 -0.000 0.0016 0.344 0.0016
1708781280.4879 0.350 -0.000 0.0031 0.350 0.0031
1708781280.4959 0.356 -0.000 0.0031 0.356 0.0031
1708781280.5046 0.363 -0.000 0.0016 0.363 0.0016
1708781280.5127 0.370 -0.000 -0.0000 0.370 -0.0000
1708781280.5204 0.376 -0.000 0.0031 0.376 0.0031
1708781280.5281 0.382 -0.000 0.0031 0.382 0.0031
1708781280.5370 0.388 -0.000 0.0031 0.388 0.0031
1708781280.5436 0.395 -0.000 -0.0000 0.395 -0.0000
1708781280.5525 0.401 -0.000 -0.0000 0.401 -0.0000
1708781280.5606 0.407 -0.000 -0.0000 0.407 -0.0000
1708781280.5685 0.414 -0.000 -0.0000 0.414 -0.0000
1708781280.5761 0.421 -0.000 -0.0000 0.421 -0.0000
1708781280.5852 0.427 -0.000 -0.0000 0.427 -0.0000
1708781280.5921 0.433 -0.000 0.0016 0.433 0.0016
1708781280.5997 0.439 -0.000 -0.0000 0.439 -0.0000
1708781280.6089 0.446 -0.000 -0.0016 0.446 -0.0016
1708781280.6166 0.451 -0.000 -0.0016 0.451 -0.0016
1708781280.6243 0.458 -0.000 -0.0016 0.458 -0.0016
1708781280.6324 0.465 -0.000 -0.0016 0.465 -0.0016
1708781280.6404 0.471 -0.000 -0.0016 0.471 -0.0016
1708781280.6480 0.477 -0.000 -0.0016 0.477 -0.0016
1708781280.6563 0.484 -0.000 -0.0016 0.484 -0.0016
1708781280.6641 0.490 -0.000 -0.0031 0.490 -0.0031
1708781280.6717 0.497 -0.000 -0.0016 0.497 -0.0016
1708781280.6805 0.503 -0.000 -0.0000 0.503 -0.0000
1708781280.6877 0.509 -0.000 -0.0016 0.509 -0.0016
1708781280.6964 0.516 -0.000 -0.0000 0.516 -0.0000
1708781280.7045 0.522 -0.000 0.0031 0.522 0.0031
1708781280.7125 0.528 -0.000 0.0016 0.528 0.0016
1708781280.7196 0.535 -0.000 -0.0016 0.535 -0.0016
1708781280.7286 0.541 -0.000 -0.0016 0.541 -0.0016
1708781280.7357 0.547 -0.000 -0.0000 0.547 -0.0000
1708781280.7445 0.553 -0.000 0.0031 0.553 0.0031
1708781280.7526 0.560 -0.000 0.0016 0.560 0.0016
1708781280.7596 0.567 -0.000 -0.0031 0.567 -0.0031
1708781280.7679 0.573 -0.000 -0.0016 0.573 -0.0016
1708781280.7770 0.579 -0.000 0.0016 0.579 0.0016
1708781280.7840 0.585 -0.000 0.0031 0.585 0.0031
1708781280.7927 0.592 -0.000 0.0016 0.592 0.0016
1708781280.8010 0.599 -0.000 -0.0000 0.599 -0.0000
1708781280.8081 0.605 -0.000 -0.0000 0.605 -0.0000
1708781280.8178 0.611 -0.000 0.0016 0.611 0.0016
1708781280.8248 0.617 -0.000 0.0016 0.617 0.0016
1708781280.8320 0.624 -0.000 0.0016 0.624 0.0016
1708781280.8396 0.630 -0.000 0.0016 0.630 0.0016
1708781280.8485 0.636 -0.000 0.0016 0.636 0.0016
1708781280.8566 0.642 -0.000 -0.0000 0.642 -0.0000
1708781280.8647 0.649 -0.000 0.0031 0.649 0.0031
1708781280.8728 0.656 -0.000 0.0031 0.656 0.0031
1708781280.8798 0.662 -0.000 0.0031 0.662 0.0031
1708781280.8885 0.668 0.000 0.0047 0.668 0.0047
1708781280.8977 0.674 0.000 0.0031 0.674 0.0031
1708781280.9047 0.681 0.000 0.0016 0.681 0.0016
1708781280.9124 0.689 0.000 0.0016 0.689 0.0016
1708781280.9211 0.695 0.000 0.0031 0.695 0.0031
1708781280.9282 0.701 0.000 0.0047 0.701 0.0047
1708781280.9359 0.707 0.000 0.0047 0.707 0.0047
1708781280.9450 0.713 0.000 0.0031 0.713 0.0031
1708781280.9519 0.720 0.000 -0.0000 0.720 -0.0000
1708781280.9605 0.726 0.000 -0.0016 0.726 -0.0016
1708781280.9692 0.732 0.000 -0.0000 0.732 -0.0000
1708781280.9762 0.738 0.000 0.0016 0.738 0.0016
1708781280.9839 0.745 0.000 0.0031 0.745 0.0031
1708781280.9932 0.752 0.000 0.0016 0.752 0.0016
1708781281.0001 0.757 0.000 -0.0000 0.757 -0.0000
1708781281.0087 0.763 0.000 -0.0000 0.763 -0.0000
1708781281.0163 0.770 0.000 0.0031 0.770 0.0031
1708781281.0244 0.776 0.000 0.0016 0.776 0.0016
1708781281.0320 0.783 0.000 -0.0016 0.783 -0.0016
1708781281.0411 0.789 0.000 -0.0000 0.789 -0.0000
1708781281.0481 0.795 0.000 0.0031 0.795 0.0031
1708781281.0557 0.801 0.000 0.0031 0.801 0.0031
1708781281.0644 0.808 0.000 -0.0000 0.808 -0.0000
1708781281.0817 0.820 0.000 -0.0047 0.820 -0.0047
1708781281.0889 0.827 0.000 -0.0031 0.827 -0.0031
1708781281.0959 0.834 0.000 -0.0031 0.834 -0.0031
1708781281.1037 0.839 0.000 -0.0031 0.839 -0.0031
1708781281.1140 0.844 0.000 -0.0031 0.844 -0.0031
1708781281.1207 0.851 0.000 -0.0000 0.851 -0.0000
1708781281.1284 0.858 0.000 -0.0016 0.858 -0.0016
1708781281.1364 0.864 0.000 -0.0031 0.864 -0.0031
1708781281.1445 0.870 0.000 -0.0031 0.870 -0.0031
1708781281.1523 0.876 0.000 -0.0016 0.876 -0.0016
1708781281.1605 0.883 0.000 -0.0031 0.883 -0.0031
1708781281.1683 0.889 0.000 -0.0031 0.889 -0.0031
1708781281.1758 0.895 0.000 -0.0031 0.895 -0.0031
1708781281.1851 0.901 0.000 -0.0031 0.901 -0.0031
1708781281.1922 0.907 -0.000 -0.0031 0.907 -0.0031
1708781281.2000 0.914 -0.000 -0.0031 0.914 -0.0031
1708781281.2083 0.920 -0.000 -0.0016 0.920 -0.0016
1708781281.2160 0.926 -0.000 -0.0000 0.926 -0.0000
1708781281.2245 0.932 -0.000 -0.0000 0.932 -0.0000
1708781281.2326 0.939 -0.000 -0.0016 0.939 -0.0016
1708781281.2397 0.946 -0.000 -0.0016 0.946 -0.0016
1708781281.2484 0.952 -0.000 -0.0000 0.952 -0.0000
1708781281.2565 0.958 -0.000 -0.0000 0.958 -0.0000
1708781281.2650 0.964 -0.000 -0.0000 0.964 -0.0000
1708781281.2726 0.971 -0.000 -0.0031 0.971 -0.0031
1708781281.2807 0.978 -0.000 -0.0047 0.978 -0.0047
1708781281.2878 0.984 -0.000 -0.0016 0.984 -0.0016
1708781281.2966 0.990 -0.000 -0.0016 0.990 -0.0016
1708781281.3046 0.996 -0.000 -0.0016 0.996 -0.0016
1708781281.3126 1.003 -0.000 -0.0047 1.003 -0.0047
1708781281.3198 1.010 -0.000 -0.0062 1.010 -0.0062
1708781281.3290 1.016 -0.000 -0.0047 1.016 -0.0047
1708781281.3360 1.022 -0.000 -0.0016 1.022 -0.0016
1708781281.3443 1.028 -0.000 -0.0000 1.028 -0.0000
1708781281.3524 1.035 -0.000 -0.0031 1.035 -0.0031
1708781281.3610 1.042 -0.000 -0.0062 1.042 -0.0062
1708781281.3678 1.048 -0.000 -0.0047 1.048 -0.0047
1708781281.3771 1.054 -0.000 -0.0016 1.054 -0.0016
1708781281.3843 1.060 -0.000 0.0031 1.060 0.0031
1708781281.3920 1.067 -0.000 0.0016 1.067 0.0016
1708781281.4010 1.073 -0.000 -0.0000 1.073 -0.0000
1708781281.4081 1.079 -0.000 -0.0000 1.079 -0.0000
1708781281.4163 1.086 -0.000 -0.0000 1.086 -0.0000
1708781281.4244 1.092 -0.000 -0.0000 1.092 -0.0000
1708781281.4325 1.098 -0.000 -0.0000 1.098 -0.0000
1708781281.4403 1.105 -0.000 -0.0016 1.105 -0.0016
1708781281.4485 1.112 -0.000 -0.0000 1.112 -0.0000
1708781281.4567 1.118 -0.000 -0.0000 1.118 -0.0000
1708781281.4641 1.124 -0.000 -0.0000 1.124 -0.0000
1708781281.4732 1.130 -0.000 -0.0016 1.130 -0.0016
1708781281.4802 1.136 -0.000 -0.0016 1.136 -0.0016
1708781281.4879 1.143 -0.000 -0.0000 1.143 -0.0000
1708781281.4970 1.150 -0.000 -0.0000 1.150 -0.0000
1708781281.5040 1.155 -0.000 -0.0000 1.155 -0.0000
1708781281.5127 1.162 -0.000 -0.0000 1.162 -0.0000
1708781281.5204 1.168 -0.000 -0.0016 1.168 -0.0016
1708781281.5285 1.175 -0.000 -0.0031 1.175 -0.0031
1708781281.5359 1.181 -0.000 -0.0016 1.181 -0.0016
1708781281.5451 1.187 -0.000 -0.0000 1.187 -0.0000
1708781281.5521 1.193 -0.000 -0.0016 1.193 -0.0016
1708781281.5598 1.200 -0.000 -0.0000 1.200 -0.0000
1708781281.5685 1.207 -0.000 0.0016 1.207 0.0016
1708781281.5767 1.213 -0.000 -0.0000 1.213 -0.0000
1708781281.5843 1.219 -0.000 -0.0000 1.219 -0.0000
1708781281.5931 1.226 -0.000 -0.0016 1.226 -0.0016
1708781281.6002 1.232 -0.000 -0.0031 1.232 -0.0031
1708781281.6080 1.238 -0.000 -0.0031 1.238 -0.0031
1708781281.6168 1.244 -0.000 -0.0016 1.244 -0.0016
1708781281.6237 1.250 -0.000 0.0016 1.250 0.0016
1708781281.6326 1.257 -0.000 -0.0016 1.257 -0.0016
1708781281.6407 1.264 -0.000 -0.0031 1.264 -0.0031
1708781281.6478 1.270 -0.000 0.0016 1.270 0.0016
1708781281.6562 1.276 -0.000 0.0047 1.276 0.0047
1708781281.6649 1.283 -0.000 0.0016 1.283 0.0016
1708781281.6717 1.289 -0.000 -0.0000 1.289 -0.0000
1708781281.6806 1.295 -0.000 -0.0000 1.295 -0.0000
1708781281.6886 1.301 -0.000 0.0031 1.301 0.0031
1708781281.6957 1.308 -0.000 0.0031 1.308 0.0031
1708781281.7045 1.315 -0.000 -0.0000 1.315 -0.0000
1708781281.7126 1.320 -0.000 0.0016 1.320 0.0016
1708781281.7198 1.327 -0.000 0.0016 1.327 0.0016
1708781281.7287 1.333 -0.000 0.0016 1.333 0.0016
1708781281.7369 1.339 -0.000 0.0016 1.339 0.0016
1708781281.7439 1.346 -0.000 0.0016 1.346 0.0016
1708781281.7527 1.353 -0.000 -0.0000 1.353 -0.0000
1708781281.7605 1.359 -0.000 -0.0000 1.359 -0.0000
1708781281.7683 1.365 -0.000 0.0031 1.365 0.0031
1708781281.7759 1.372 -0.000 0.0031 1.372 0.0031
1708781281.7849 1.378 -0.000 -0.0000 1.378 -0.0000
1708781281.7919 1.385 -0.000 0.0016 1.385 0.0016
1708781281.8007 1.391 -0.000 -0.0000 1.391 -0.0000
1708781281.8086 1.397 -0.000 -0.0016 1.397 -0.0016
1708781281.8165 1.404 -0.000 -0.0000 1.404 -0.0000
1708781281.8244 1.410 -0.000 -0.0000 1.410 -0.0000
1708781281.8325 1.417 -0.000 -0.0000 1.417 -0.0000
1708781281.8397 1.423 -0.000 -0.0031 1.423 -0.0031
1708781281.8482 1.429 -0.000 -0.0031 1.429 -0.0031
1708781281.8564 1.435 -0.000 -0.0016 1.435 -0.0016
1708781281.8642 1.442 -0.000 0.0016 1.442 0.0016
1708781281.8718 1.448 -0.000 -0.0000 1.448 -0.0000
1708781281.8804 1.455 -0.000 -0.0047 1.455 -0.0047
1708781281.8887 1.461 -0.000 -0.0047 1.461 -0.0047
1708781281.8963 1.467 -0.000 -0.0031 1.467 -0.0031
1708781281.9044 1.474 -0.000 -0.0016 1.474 -0.0016
1708781281.9126 1.480 -0.000 -0.0031 1.480 -0.0031
1708781281.9200 1.486 -0.000 -0.0016 1.486 -0.0016
1708781281.9293 1.493 -0.000 -0.0031 1.493 -0.0031
1708781281.9364 1.499 -0.000 -0.0031 1.499 -0.0031
1708781281.9441 1.506 -0.001 -0.0031 1.506 -0.0031
1708781281.9532 1.512 -0.001 -0.0016 1.512 -0.0016
1708781281.9604 1.518 -0.001 -0.0016 1.518 -0.0016
1708781281.9677 1.524 -0.001 -0.0016 1.524 -0.0016
1708781281.9770 1.531 -0.001 -0.0031 1.531 -0.0031
1708781281.9839 1.537 -0.001 -0.0031 1.537 -0.0031
1708781281.9917 1.543 -0.001 -0.0031 1.543 -0.0031
1708781282.0010 1.549 -0.001 -0.0016 1.549 -0.0016
1708781282.0080 1.556 -0.001 -0.0016 1.556 -0.0016
1708781282.0164 1.563 -0.001 -0.0000 1.563 -0.0000
1708781282.0246 1.569 -0.001 -0.0016 1.569 -0.0016
1708781282.0327 1.575 -0.001 -0.0031 1.575 -0.0031
1708781282.0405 1.582 -0.001 -0.0000 1.582 -0.0000
1708781282.0487 1.588 -0.001 -0.0000 1.588 -0.0000
1708781282.0558 1.595 -0.001 -0.0016 1.595 -0.0016
1708781282.0643 1.601 -0.001 -0.0000 1.601 -0.0000
1708781282.0847 1.606 -0.001 -0.0016 1.606 -0.0016
1708781282.0872 1.612 -0.001 -0.0016 1.612 -0.0016
1708781282.1004 1.619 -0.001 -0.0031 1.619 -0.0031
1708781282.1095 1.627 -0.001 -0.0062 1.627 -0.0062
1708781282.1130 1.635 -0.001 -0.0109 1.635 -0.0109
1708781282.1159 1.641 -0.001 -0.0140 1.641 -0.0140
1708781282.1207 1.646 -0.001 -0.0155 1.646 -0.0155
1708781282.1278 1.649 -0.001 -0.0155 1.649 -0.0155
1708781282.1357 1.651 -0.001 -0.0140 1.651 -0.0140
1708781282.1452 1.653 -0.001 -0.0109 1.653 -0.0109
1708781282.1526 1.658 -0.001 -0.0047 1.658 -0.0047
1708781282.1604 1.664 -0.001 0.0000 1.664 0.0000
1708781282.1694 1.669 -0.001 0.0016 1.669 0.0016
1708781282.1766 1.675 -0.001 0.0016 1.675 0.0016
1708781282.1845 1.680 -0.001 0.0031 1.680 0.0031
1708781282.1929 1.685 -0.001 0.0047 1.685 0.0047
1708781282.2002 1.690 -0.001 0.0078 1.690 0.0078
1708781282.2085 1.695 -0.001 0.0078 1.695 0.0078
1708781282.2168 1.700 -0.001 0.0062 1.700 0.0062
1708781282.2240 1.706 -0.001 0.0062 1.706 0.0062
1708781282.2324 1.712 -0.001 0.0109 1.712 0.0109
1708781282.2407 1.717 -0.001 0.0155 1.717 0.0155
1708781282.2479 1.722 -0.001 0.0124 1.722 0.0124
1708781282.2566 1.728 -0.001 0.0109 1.728 0.0109
1708781282.2644 1.733 -0.001 0.0109 1.733 0.0109
1708781282.2726 1.739 -0.001 0.0124 1.739 0.0124
1708781282.2803 1.745 -0.000 0.0124 1.745 0.0124
1708781282.2886 1.750 -0.000 0.0124 1.750 0.0124
1708781282.2957 1.756 -0.000 0.0124 1.756 0.0124
1708781282.3043 1.762 -0.000 0.0124 1.762 0.0124
1708781282.3125 1.768 -0.000 0.0124 1.768 0.0124
1708781282.3203 1.774 -0.000 0.0109 1.774 0.0109
1708781282.3280 1.781 -0.000 0.0109 1.781 0.0109
1708781282.3373 1.786 0.000 0.0093 1.786 0.0093
1708781282.3450 1.792 0.000 0.0078 1.792 0.0078
1708781282.3527 1.799 0.000 0.0062 1.799 0.0062
1708781282.3608 1.805 0.000 0.0062 1.805 0.0062
1708781282.3686 1.811 0.000 0.0047 1.811 0.0047
1708781282.3763 1.817 0.000 0.0031 1.817 0.0031
1708781282.3845 1.824 0.000 0.0031 1.824 0.0031
1708781282.3927 1.831 0.000 0.0031 1.831 0.0031
1708781282.4003 1.837 0.000 0.0031 1.837 0.0031
1708781282.4084 1.843 0.000 0.0016 1.843 0.0016
1708781282.4158 1.850 0.000 0.0016 1.850 0.0016
1708781282.4259 1.856 0.000 0.0000 1.856 0.0000
1708781282.4332 1.862 0.000 0.0016 1.862 0.0016
1708781282.4400 1.868 0.000 0.0016 1.868 0.0016
1708781282.4477 1.875 0.000 0.0016 1.875 0.0016
1708781282.4569 1.881 0.000 0.0000 1.881 0.0000
1708781282.4639 1.887 0.000 0.0031 1.887 0.0031
1708781282.4726 1.894 0.000 0.0031 1.894 0.0031
1708781282.4806 1.900 0.000 0.0000 1.900 0.0000
1708781282.4887 1.906 0.000 0.0000 1.906 0.0000
1708781282.4964 1.913 0.000 0.0000 1.913 0.0000
1708781282.5046 1.920 0.000 0.0031 1.920 0.0031
1708781282.5117 1.926 0.000 0.0031 1.926 0.0031
1708781282.5201 1.932 0.000 0.0000 1.932 0.0000
1708781282.5298 1.938 0.000 -0.0031 1.938 -0.0031
1708781282.5359 1.944 0.000 -0.0031 1.944 -0.0031
1708781282.5437 1.951 0.000 0.0000 1.951 0.0000
1708781282.5530 1.956 0.000 0.0016 1.956 0.0016
1708781282.5600 1.962 0.000 0.0016 1.962 0.0016
1708781282.5684 1.969 0.000 -0.0016 1.969 -0.0016
1708781282.5777 1.976 0.000 -0.0016 1.976 -0.0016
1708781282.5838 1.982 0.000 0.0000 1.982 0.0000
1708781282.5927 1.988 0.000 0.0047 1.988 0.0047
1708781282.6008 1.994 0.000 0.0016 1.994 0.0016
1708781282.6079 2.000 0.000 0.0016 2.000 0.0016
1708781282.6162 2.007 0.000 -0.0031 2.007 -0.0031
1708781282.6244 2.013 0.000 -0.0016 2.013 -0.0016
1708781282.6327 2.019 0.000 0.0016 2.019 0.0016
1708781282.6405 2.026 0.000 0.0016 2.026 0.0016
1708781282.6487 2.033 0.000 0.0016 2.033 0.0016
1708781282.6558 2.039 0.000 0.0016 2.039 0.0016
1708781282.6641 2.045 0.000 0.0000 2.045 0.0000
1708781282.6733 2.051 0.000 0.0016 2.051 0.0016
1708781282.6804 2.057 0.000 0.0000 2.057 0.0000
1708781282.6880 2.064 0.000 0.0000 2.064 0.0000
1708781282.6965 2.070 0.000 0.0016 2.070 0.0016
1708781282.7045 2.076 0.000 0.0016 2.076 0.0016
1708781282.7123 2.082 0.000 0.0031 2.083 0.0031
1708781282.7211 2.090 0.000 0.0000 2.090 0.0000
1708781282.7281 2.096 0.000 -0.0016 2.096 -0.0016
1708781282.7358 2.102 0.000 -0.0016 2.102 -0.0016
1708781282.7450 2.108 0.000 0.0000 2.108 0.0000
1708781282.7518 2.114 0.000 -0.0016 2.114 -0.0016
1708781282.7605 2.121 0.000 -0.0031 2.121 -0.0031
1708781282.7766 2.133 0.000 -0.0016 2.133 -0.0016
1708781282.7847 2.139 0.000 -0.0016 2.139 -0.0016
1708781282.7951 2.146 0.000 0.0000 2.146 0.0000
1708781282.8003 2.153 0.000 -0.0031 2.153 -0.0031
1708781282.8083 2.159 0.000 -0.0047 2.159 -0.0047
1708781282.8172 2.165 0.000 -0.0016 2.165 -0.0016
1708781282.8244 2.171 0.000 0.0016 2.171 0.0016
1708781282.8322 2.178 0.000 0.0031 2.178 0.0031
1708781282.8404 2.184 0.000 -0.0016 2.184 -0.0016
1708781282.8483 2.190 0.000 -0.0031 2.190 -0.0031
1708781282.8562 2.196 0.000 0.0000 2.196 0.0000
1708781282.8651 2.203 0.000 0.0047 2.203 0.0047
1708781282.8722 2.209 0.000 0.0031 2.209 0.0031
1708781282.8801 2.216 0.000 0.0016 2.216 0.0016
1708781282.8893 2.222 0.000 -0.0016 2.222 -0.0016
1708781282.8965 2.228 0.000 0.0031 2.228 0.0031
1708781282.9043 2.235 0.000 0.0062 2.235 0.0062
1708781282.9127 2.242 0.000 0.0031 2.242 0.0031
1708781282.9206 2.248 0.000 0.0000 2.248 0.0000
1708781282.9288 2.254 0.000 0.0031 2.254 0.0031
1708781282.9396 2.261 0.001 0.0062 2.261 0.0062
1708781282.9438 2.267 0.001 0.0031 2.267 0.0031
1708781282.9527 2.274 0.001 -0.0016 2.274 -0.0016
1708781282.9610 2.278 0.001 -0.0047 2.278 -0.0047
1708781282.9677 2.283 0.001 -0.0031 2.283 -0.0031
1708781282.9763 2.289 0.001 -0.0016 2.289 -0.0016
1708781282.9847 2.296 0.001 0.0016 2.296 0.0016
1708781282.9922 2.302 0.001 -0.0016 2.302 -0.0016
1708781283.0007 2.308 0.000 -0.0031 2.308 -0.0031
1708781283.0088 2.314 0.000 -0.0047 2.314 -0.0047
1708781283.0164 2.321 0.000 -0.0016 2.321 -0.0016
1708781283.0239 2.327 0.000 -0.0016 2.327 -0.0016
1708781283.0332 2.333 0.000 -0.0031 2.333 -0.0031
1708781283.0405 2.339 0.000 -0.0016 2.339 -0.0016
1708781283.0483 2.345 0.000 -0.0000 2.345 -0.0000
