% Encoder logfile
% 1 	Time (sec)
% 2,3 	enc left, right
% 4,5 	encoder change left, right
1708096611.7659 0 0 0 0
1708096611.7747 0 0 0 0
1708096611.7826 0 0 0 0
1708096611.7890 0 0 0 0
1708096611.7971 0 0 0 0
1708096611.8052 0 0 0 0
1708096611.8132 0 0 0 0
1708096611.8221 0 0 0 0
1708096611.8299 0 0 0 0
1708096611.8377 0 0 0 0
1708096611.8458 0 0 0 0
1708096611.8541 0 0 0 0
1708096611.8618 0 0 0 0
1708096611.8701 0 0 0 0
1708096611.8776 0 0 0 0
1708096611.8852 0 0 0 0
1708096611.8932 0 0 0 0
1708096611.9012 3 2 3 2
1708096611.9100 6 5 3 3
1708096611.9179 8 7 2 2
1708096611.9256 9 8 1 1
1708096611.9333 10 8 1 0
1708096611.9412 11 10 1 2
1708096611.9497 14 13 3 3
1708096611.9579 17 15 3 2
1708096611.9651 19 18 2 3
1708096611.9730 22 21 3 3
1708096611.9865 26 24 4 3
1708096611.9902 29 28 3 4
1708096611.9973 32 31 3 3
1708096612.0055 35 33 3 2
1708096612.0131 39 37 4 4
1708096612.0214 44 42 5 5
1708096612.0298 48 45 4 3
1708096612.0373 52 49 4 4
1708096612.0460 57 53 5 4
1708096612.0531 61 57 4 4
1708096612.0615 66 61 5 4
1708096612.0692 70 65 4 4
1708096612.0772 74 70 4 5
1708096612.0859 79 75 5 5
1708096612.0936 84 78 5 3
1708096612.1017 88 80 4 2
1708096612.1091 91 85 3 5
1708096612.1177 94 91 3 6
1708096612.1257 99 96 5 5
1708096612.1331 104 99 5 3
1708096612.1415 108 102 4 3
1708096612.1497 111 107 3 5
1708096612.1571 116 113 5 6
1708096612.1657 121 117 5 4
1708096612.1735 125 120 4 3
1708096612.1820 127 124 2 4
1708096612.1897 132 129 5 5
1708096612.1983 138 135 6 6
1708096612.2056 143 138 5 3
1708096612.2132 146 140 3 2
1708096612.2221 147 143 1 3
1708096612.2293 151 149 4 6
1708096612.2381 158 156 7 7
1708096612.2454 162 159 4 3
1708096612.2535 164 160 2 1
1708096612.2619 168 165 4 5
1708096612.2692 173 171 5 6
1708096612.2772 179 176 6 5
1708096612.2860 182 179 3 3
1708096612.2938 184 182 2 3
1708096612.3017 189 187 5 5
1708096612.3100 195 192 6 5
1708096612.3178 199 196 4 4
1708096612.3255 202 199 3 3
1708096612.3337 206 203 4 4
1708096612.3418 211 208 5 5
1708096612.3500 216 213 5 5
1708096612.3573 220 217 4 4
1708096612.3661 222 221 2 4
1708096612.3737 225 226 3 5
1708096612.3819 231 231 6 5
1708096612.3896 238 234 7 3
1708096612.3978 242 237 4 3
1708096612.4061 244 242 2 5
1708096612.4136 247 248 3 6
1708096612.4224 253 252 6 4
1708096612.4299 259 255 6 3
1708096612.4376 264 259 5 4
1708096612.4458 266 264 2 5
1708096612.4541 268 270 2 6
1708096612.4616 274 274 6 4
1708096612.4695 280 277 6 3
1708096612.4772 285 280 5 3
1708096612.4851 288 285 3 5
1708096612.4933 290 291 2 6
1708096612.5014 294 295 4 4
1708096612.5091 301 298 7 3
1708096612.5173 307 301 6 3
1708096612.5251 310 306 3 5
1708096612.5339 312 312 2 6
1708096612.5411 314 316 2 4
1708096612.5510 319 318 5 2
1708096612.5571 326 321 7 3
1708096612.5654 331 325 5 4
1708096612.5733 333 330 2 5
1708096612.5811 335 336 2 6
1708096612.5892 340 340 5 4
1708096612.5972 346 342 6 2
1708096612.6055 351 346 5 4
1708096612.6137 353 352 2 6
1708096612.6225 356 356 3 4
1708096612.6295 360 359 4 3
1708096612.6379 366 363 6 4
1708096612.6451 372 369 6 6
1708096612.6541 375 373 3 4
1708096612.6613 376 375 1 2
1708096612.6695 380 379 4 4
1708096612.6778 387 384 7 5
1708096612.6859 393 390 6 6
1708096612.6931 396 394 3 4
1708096612.7019 398 396 2 2
1708096612.7101 402 400 4 4
1708096612.7172 408 406 6 6
1708096612.7258 415 411 7 5
1708096612.7333 418 413 3 2
1708096612.7417 420 416 2 3
1708096612.7494 425 422 5 6
1708096612.7576 431 429 6 7
1708096612.7658 436 432 5 3
1708096612.7739 439 434 3 2
1708096612.7820 440 438 1 4
1708096612.7892 445 444 5 6
1708096612.7980 451 450 6 6
1708096612.8051 456 453 5 3
1708096612.8134 459 456 3 3
1708096612.8226 461 461 2 5
1708096612.8299 466 467 5 6
1708096612.8371 473 472 7 5
1708096612.8459 478 474 5 2
1708096612.8541 480 476 2 2
1708096612.8626 483 481 3 5
1708096612.8700 489 487 6 6
1708096612.8781 496 492 7 5
1708096612.8854 500 495 4 3
1708096612.8933 501 498 1 3
1708096612.9015 504 501 3 3
1708096612.9095 511 507 7 6
1708096612.9172 517 513 6 6
1708096612.9261 520 517 3 4
1708096612.9334 522 519 2 2
1708096612.9411 525 523 3 4
1708096612.9493 531 529 6 6
1708096612.9573 538 533 7 4
1708096612.9651 541 537 3 4
1708096612.9740 543 540 2 3
1708096612.9811 547 545 4 5
1708096612.9900 553 551 6 6
1708096612.9982 558 554 5 3
1708096613.0054 561 556 3 2
1708096613.0132 564 561 3 5
1708096613.0221 568 567 4 6
1708096613.0293 574 571 6 4
1708096613.0381 579 574 5 3
1708096613.0451 582 577 3 3
1708096613.0535 585 582 3 5
1708096613.0612 590 588 5 6
1708096613.0695 595 592 5 4
1708096613.0771 600 594 5 2
1708096613.0860 602 599 2 5
1708096613.0940 604 605 2 6
1708096613.1011 609 609 5 4
1708096613.1101 616 612 7 3
1708096613.1172 620 614 4 2
1708096613.1261 623 619 3 5
1708096613.1335 626 626 3 7
1708096613.1417 631 631 5 5
1708096613.1499 637 634 6 3
1708096613.1576 642 635 5 1
1708096613.1658 644 640 2 5
1708096613.1737 646 646 2 6
1708096613.1812 652 651 6 5
1708096613.1894 658 655 6 4
1708096613.1977 662 657 4 2
1708096613.2054 664 662 2 5
1708096613.2141 668 668 4 6
1708096613.2228 674 672 6 4
1708096613.2295 680 675 6 3
1708096613.2377 683 678 3 3
1708096613.2459 684 684 1 6
1708096613.2537 687 690 3 6
1708096613.2619 694 693 7 3
1708096613.2700 701 696 7 3
1708096613.2773 705 701 4 5
1708096613.2858 706 707 1 6
1708096613.2938 709 711 3 4
1708096613.3015 715 714 6 3
1708096613.3096 722 717 7 3
1708096613.3176 726 722 4 5
1708096613.3260 729 728 3 6
1708096613.3331 733 733 4 5
1708096613.3413 739 736 6 3
1708096613.3493 744 738 5 2
1708096613.3572 747 743 3 5
1708096613.3654 750 749 3 6
1708096613.3739 755 754 5 5
1708096613.3821 761 757 6 3
1708096613.3892 766 759 5 2
1708096613.3971 768 765 2 6
1708096613.4060 771 770 3 5
1708096613.4139 776 774 5 4
1708096613.4223 783 777 7 3
1708096613.4294 787 781 4 4
1708096613.4376 790 786 3 5
1708096613.4460 792 791 2 5
1708096613.4541 796 795 4 4
1708096613.4613 802 798 6 3
1708096613.4701 808 802 6 4
1708096613.4778 811 807 3 5
1708096613.4860 813 812 2 5
1708096613.4936 817 815 4 3
1708096613.5018 823 818 6 3
1708096613.5100 828 823 5 5
1708096613.5177 832 828 4 5
1708096613.5255 834 833 2 5
1708096613.5338 837 837 3 4
1708096613.5413 843 839 6 2
1708096613.5495 849 843 6 4
1708096613.5578 854 849 5 6
1708096613.5656 856 855 2 6
1708096613.5734 859 858 3 3
1708096613.5814 864 860 5 2
1708096613.5892 870 865 6 5
1708096613.5973 874 871 4 6
1708096613.6056 875 876 1 5
1708096613.6133 879 879 4 3
1708096613.6222 886 882 7 3
1708096613.6300 892 887 6 5
1708096613.6378 896 893 4 6
1708096613.6460 897 897 1 4
1708096613.6532 901 900 4 3
1708096613.6612 907 904 6 4
1708096613.6694 913 909 6 5
1708096613.6771 916 915 3 6
1708096613.6858 919 918 3 3
1708096613.6941 924 920 5 2
1708096613.7012 930 924 6 4
1708096613.7100 934 930 4 6
1708096613.7171 936 935 2 5
1708096613.7260 940 939 4 4
1708096613.7339 946 942 6 3
1708096613.7421 952 946 6 4
1708096613.7492 956 952 4 6
1708096613.7580 958 958 2 6
1708096613.7661 961 960 3 2
1708096613.7739 967 963 6 3
1708096613.7818 974 967 7 4
1708096613.7896 978 973 4 6
1708096613.7980 980 978 2 5
1708096613.8058 983 982 3 4
1708096613.8139 988 984 5 2
1708096613.8217 994 988 6 4
1708096613.8298 999 994 5 6
1708096613.8381 1001 999 2 5
1708096613.8456 1003 1003 2 4
1708096613.8533 1008 1006 5 3
1708096613.8616 1014 1009 6 3
1708096613.8699 1018 1014 4 5
1708096613.8772 1021 1020 3 6
1708096613.8855 1025 1024 4 4
1708096613.8938 1030 1027 5 3
1708096613.9014 1036 1031 6 4
1708096613.9097 1039 1036 3 5
1708096613.9181 1041 1041 2 5
1708096613.9260 1045 1043 4 2
1708096613.9331 1051 1045 6 2
1708096613.9425 1057 1050 6 5
1708096613.9493 1059 1057 2 7
1708096613.9575 1061 1062 2 5
1708096613.9658 1067 1064 6 2
1708096613.9731 1073 1066 6 2
1708096613.9813 1077 1071 4 5
1708096613.9895 1079 1078 2 7
1708096613.9972 1083 1083 4 5
1708096614.0054 1089 1085 6 2
1708096614.0137 1095 1086 6 1
1708096614.0219 1099 1092 4 6
1708096614.0301 1101 1099 2 7
1708096614.0374 1105 1103 4 4
1708096614.0455 1111 1106 6 3
1708096614.0540 1116 1109 5 3
1708096614.0612 1119 1115 3 6
1708096614.0701 1121 1121 2 6
1708096614.0778 1125 1125 4 4
1708096614.0853 1132 1126 7 1
1708096614.0932 1138 1129 6 3
1708096614.1016 1140 1136 2 7
1708096614.1098 1142 1142 2 6
1708096614.1177 1146 1146 4 4
1708096614.1260 1153 1148 7 2
1708096614.1339 1159 1152 6 4
1708096614.1417 1162 1158 3 6
1708096614.1491 1164 1164 2 6
1708096614.1574 1168 1167 4 3
1708096614.1651 1174 1171 6 4
1708096614.1738 1180 1175 6 4
1708096614.1821 1184 1181 4 6
1708096614.1898 1186 1186 2 5
1708096614.1980 1190 1189 4 3
1708096614.2051 1196 1191 6 2
1708096614.2138 1202 1195 6 4
1708096614.2235 1205 1201 3 6
1708096614.2292 1207 1208 2 7
1708096614.2371 1211 1212 4 4
1708096614.2453 1217 1213 6 1
1708096614.2537 1222 1216 5 3
1708096614.2612 1226 1223 4 7
1708096614.2694 1228 1229 2 6
1708096614.2771 1232 1232 4 3
1708096614.2859 1238 1234 6 2
1708096614.2931 1244 1238 6 4
1708096614.3017 1248 1244 4 6
1708096614.3097 1250 1249 2 5
1708096614.3179 1254 1252 4 3
1708096614.3257 1259 1255 5 3
1708096614.3335 1265 1260 6 5
1708096614.3419 1269 1265 4 5
1708096614.3498 1271 1268 2 3
1708096614.3576 1274 1272 3 4
1708096614.3659 1280 1276 6 4
1708096614.3738 1286 1282 6 6
1708096614.3815 1290 1286 4 4
1708096614.3897 1291 1288 1 2
1708096614.3977 1295 1292 4 4
1708096614.4055 1301 1298 6 6
1708096614.4137 1307 1303 6 5
1708096614.4226 1310 1307 3 4
1708096614.4295 1311 1309 1 2
1708096614.4375 1315 1313 4 4
1708096614.4458 1321 1319 6 6
1708096614.4537 1328 1324 7 5
1708096614.4621 1332 1327 4 3
1708096614.4694 1334 1328 2 1
1708096614.4779 1338 1333 4 5
1708096614.4859 1343 1340 5 7
1708096614.4931 1349 1345 6 5
1708096614.5020 1353 1347 4 2
1708096614.5091 1354 1349 1 2
1708096614.5173 1358 1354 4 5
1708096614.5259 1364 1361 6 7
1708096614.5340 1371 1366 7 5
1708096614.5411 1374 1368 3 2
1708096614.5500 1376 1371 2 3
1708096614.5581 1379 1377 3 6
1708096614.5653 1385 1383 6 6
1708096614.5740 1391 1388 6 5
1708096614.5811 1395 1390 4 2
1708096614.5893 1397 1393 2 3
1708096614.5981 1400 1399 3 6
1708096614.6059 1405 1405 5 6
1708096614.6132 1411 1409 6 4
1708096614.6218 1416 1411 5 2
1708096614.6299 1418 1415 2 4
1708096614.6371 1420 1420 2 5
1708096614.6459 1425 1426 5 6
1708096614.6541 1432 1430 7 4
1708096614.6621 1437 1432 5 2
1708096614.6699 1440 1436 3 4
1708096614.6777 1442 1442 2 6
1708096614.6859 1446 1448 4 6
1708096614.6936 1453 1451 7 3
1708096614.7019 1458 1452 5 1
1708096614.7100 1461 1457 3 5
1708096614.7177 1464 1463 3 6
1708096614.7255 1468 1469 4 6
1708096614.7338 1474 1472 6 3
1708096614.7532 1480 1474 6 2
1708096614.7549 1484 1478 4 4
1708096614.7576 1487 1484 3 6
1708096614.7654 1488 1488 1 4
1708096614.7733 1491 1487 3 -1
1708096614.7817 1497 1491 6 4
1708096614.7895 1503 1496 6 5
1708096614.7976 1507 1501 4 5
1708096614.8060 1509 1504 2 3
1708096614.8138 1512 1506 3 2
1708096614.8227 1517 1510 5 4
1708096614.8323 1524 1516 7 6
1708096614.8377 1527 1521 3 5
1708096614.8458 1528 1523 1 2
1708096614.8541 1531 1524 3 1
1708096614.8619 1537 1528 6 4
1708096614.8691 1544 1535 7 7
1708096614.8782 1547 1539 3 4
1708096614.8860 1548 1542 1 3
1708096614.8941 1552 1546 4 4
1708096614.9013 1559 1551 7 5
1708096614.9092 1564 1556 5 5
1708096614.9175 1567 1559 3 3
1708096614.9253 1568 1561 1 2
1708096614.9340 1573 1566 5 5
1708096614.9411 1579 1572 6 6
1708096614.9495 1584 1578 5 6
1708096614.9573 1586 1581 2 3
1708096614.9656 1588 1583 2 2
1708096614.9779 1593 1588 5 5
1708096614.9841 1600 1594 7 6
1708096614.9901 1607 1601 7 7
1708096614.9972 1610 1605 3 4
1708096615.0051 1611 1606 1 1
1708096615.0135 1614 1609 3 3
1708096615.0223 1620 1614 6 5
1708096615.0294 1627 1620 7 6
1708096615.0379 1631 1625 4 5
1708096615.0451 1633 1628 2 3
1708096615.0531 1636 1631 3 3
1708096615.0614 1641 1635 5 4
1708096615.0696 1646 1641 5 6
1708096615.0774 1650 1646 4 5
1708096615.0858 1652 1649 2 3
1708096615.0932 1655 1652 3 3
1708096615.1011 1660 1656 5 4
1708096615.1094 1666 1661 6 5
1708096615.1175 1670 1666 4 5
1708096615.1260 1672 1669 2 3
1708096615.1340 1675 1671 3 2
1708096615.1414 1680 1676 5 5
1708096615.1492 1686 1682 6 6
1708096615.1573 1689 1685 3 3
1708096615.1658 1691 1687 2 2
1708096615.1734 1695 1692 4 5
1708096615.1818 1700 1698 5 6
1708096615.1891 1706 1702 6 4
1708096615.1971 1709 1705 3 3
1708096615.2053 1711 1708 2 3
1708096615.2136 1715 1713 4 5
1708096615.2223 1721 1719 6 6
1708096615.2298 1727 1722 6 3
1708096615.2381 1730 1725 3 3
1708096615.2460 1731 1729 1 4
1708096615.2541 1735 1735 4 6
1708096615.2613 1741 1740 6 5
1708096615.2692 1747 1743 6 3
1708096615.2771 1750 1745 3 2
1708096615.2855 1752 1750 2 5
1708096615.2932 1756 1756 4 6
1708096615.3015 1762 1762 6 6
1708096615.3129 1768 1765 6 3
1708096615.3177 1772 1767 4 2
1708096615.3257 1775 1770 3 3
1708096615.3340 1777 1775 2 5
1708096615.3417 1782 1782 5 7
1708096615.3491 1788 1787 6 5
1708096615.3576 1792 1790 4 3
1708096615.3654 1794 1792 2 2
1708096615.3732 1799 1796 5 4
1708096615.3824 1804 1802 5 6
1708096615.3892 1809 1807 5 5
1708096615.3974 1812 1811 3 4
1708096615.4058 1814 1814 2 3
1708096615.4136 1819 1819 5 5
1708096615.4225 1825 1825 6 6
1708096615.4296 1830 1828 5 3
1708096615.4374 1834 1831 4 3
1708096615.4456 1837 1835 3 4
1708096615.4538 1841 1841 4 6
1708096615.4616 1846 1846 5 5
1708096615.4698 1852 1848 6 2
1708096615.4779 1856 1850 4 2
1708096615.4857 1858 1855 2 5
1708096615.4939 1862 1861 4 6
