% Pose without folding and reset (log_20240224_121535.119/log_pose_abs.txt)
% 1 	Time (sec)
% 2,3 	Position x,y (m)
% 4 	heading (rad)
% 5 	Driven distance (m) - signed
% 6 	Turned angle (rad) - signed
1708773335.8107 0.000 0.000 0.0000 0.000 0.0000
1708773335.8189 0.000 0.000 0.0000 0.000 0.0000
1708773335.8267 0.000 0.000 0.0000 0.000 0.0000
1708773335.8332 0.000 0.000 0.0000 0.000 0.0000
1708773335.8412 0.000 0.000 0.0000 0.000 0.0000
1708773335.8495 0.000 0.000 0.0000 0.000 0.0000
1708773335.8581 0.000 0.000 0.0000 0.000 0.0000
1708773335.8668 0.000 0.000 0.0000 0.000 0.0000
1708773335.8735 0.000 0.000 0.0000 0.000 0.0000
1708773335.8815 0.000 0.000 0.0000 0.000 0.0000
1708773335.8898 0.000 0.000 0.0000 0.000 0.0000
1708773335.8982 0.000 0.000 0.0000 0.000 0.0000
1708773335.9060 0.000 0.000 0.0000 0.000 0.0000
1708773335.9133 0.000 0.000 0.0000 0.000 0.0000
1708773335.9219 0.000 0.000 0.0000 0.000 0.0000
1708773335.9294 0.000 0.000 0.0016 0.000 0.0016
1708773335.9387 0.002 0.000 0.0000 0.002 0.0000
1708773335.9463 0.004 0.000 0.0016 0.004 0.0016
1708773335.9541 0.005 0.000 0.0016 0.005 0.0016
1708773335.9621 0.006 0.000 0.0000 0.006 0.0000
1708773335.9698 0.007 0.000 0.0000 0.007 0.0000
1708773335.9775 0.009 0.000 0.0000 0.009 0.0000
1708773335.9860 0.011 0.000 -0.0016 0.011 -0.0016
1708773335.9933 0.013 0.000 0.0000 0.013 0.0000
1708773336.0060 0.015 0.000 -0.0016 0.015 -0.0016
1708773336.0123 0.017 -0.000 -0.0016 0.017 -0.0016
1708773336.0202 0.020 -0.000 -0.0031 0.020 -0.0031
1708773336.0262 0.023 -0.000 -0.0062 0.023 -0.0062
1708773336.0339 0.025 -0.000 -0.0062 0.025 -0.0062
1708773336.0412 0.028 -0.000 -0.0062 0.028 -0.0062
1708773336.0502 0.031 -0.000 -0.0078 0.031 -0.0078
1708773336.0582 0.034 -0.000 -0.0093 0.034 -0.0093
1708773336.0661 0.038 -0.000 -0.0109 0.038 -0.0109
1708773336.0735 0.041 -0.000 -0.0124 0.041 -0.0124
1708773336.0822 0.045 -0.000 -0.0124 0.045 -0.0124
1708773336.0894 0.048 -0.000 -0.0124 0.048 -0.0124
1708773336.1006 0.051 -0.000 -0.0124 0.051 -0.0124
1708773336.1068 0.055 -0.000 -0.0140 0.055 -0.0140
1708773336.1142 0.058 -0.000 -0.0140 0.058 -0.0140
1708773336.1220 0.061 -0.000 -0.0124 0.061 -0.0124
1708773336.1303 0.064 -0.000 -0.0140 0.064 -0.0140
1708773336.1376 0.067 -0.001 -0.0155 0.067 -0.0155
1708773336.1453 0.071 -0.001 -0.0186 0.071 -0.0186
1708773336.1548 0.075 -0.001 -0.0186 0.075 -0.0186
1708773336.1622 0.077 -0.001 -0.0186 0.077 -0.0186
1708773336.1700 0.080 -0.001 -0.0186 0.080 -0.0186
1708773336.1822 0.084 -0.001 -0.0202 0.084 -0.0202
1708773336.1894 0.088 -0.001 -0.0248 0.088 -0.0248
1708773336.1985 0.092 -0.001 -0.0295 0.092 -0.0295
1708773336.2025 0.095 -0.001 -0.0279 0.095 -0.0279
1708773336.2097 0.098 -0.001 -0.0248 0.098 -0.0248
1708773336.2182 0.099 -0.001 -0.0248 0.099 -0.0248
1708773336.2265 0.102 -0.001 -0.0295 0.102 -0.0295
1708773336.2335 0.105 -0.001 -0.0341 0.105 -0.0341
1708773336.2422 0.109 -0.002 -0.0341 0.109 -0.0341
1708773336.2504 0.112 -0.002 -0.0326 0.112 -0.0326
1708773336.2576 0.115 -0.002 -0.0341 0.115 -0.0341
1708773336.2660 0.118 -0.002 -0.0341 0.118 -0.0341
1708773336.2742 0.121 -0.002 -0.0357 0.121 -0.0357
1708773336.2822 0.125 -0.002 -0.0404 0.125 -0.0404
1708773336.2899 0.128 -0.002 -0.0404 0.128 -0.0404
1708773336.2981 0.130 -0.002 -0.0388 0.130 -0.0388
1708773336.3059 0.133 -0.002 -0.0404 0.133 -0.0404
1708773336.3137 0.137 -0.003 -0.0419 0.137 -0.0419
1708773336.3223 0.140 -0.003 -0.0435 0.140 -0.0435
1708773336.3294 0.143 -0.003 -0.0435 0.143 -0.0435
1708773336.3373 0.146 -0.003 -0.0450 0.146 -0.0450
1708773336.3458 0.149 -0.003 -0.0450 0.149 -0.0450
1708773336.3541 0.152 -0.003 -0.0466 0.152 -0.0466
1708773336.3618 0.156 -0.003 -0.0481 0.156 -0.0481
1708773336.3704 0.159 -0.004 -0.0450 0.159 -0.0450
1708773336.3776 0.162 -0.004 -0.0450 0.162 -0.0450
1708773336.3857 0.165 -0.004 -0.0466 0.165 -0.0466
1708773336.3999 0.168 -0.004 -0.0497 0.168 -0.0497
1708773336.4019 0.171 -0.004 -0.0512 0.171 -0.0512
1708773336.4106 0.174 -0.004 -0.0497 0.174 -0.0497
1708773336.4180 0.175 -0.004 -0.0512 0.175 -0.0512
1708773336.4257 0.177 -0.004 -0.0528 0.177 -0.0528
1708773336.4336 0.180 -0.005 -0.0512 0.180 -0.0512
1708773336.4419 0.184 -0.005 -0.0528 0.184 -0.0528
1708773336.4493 0.187 -0.005 -0.0543 0.187 -0.0543
1708773336.4582 0.189 -0.005 -0.0559 0.189 -0.0559
1708773336.4673 0.191 -0.005 -0.0543 0.191 -0.0543
1708773336.4735 0.194 -0.005 -0.0543 0.194 -0.0543
1708773336.4815 0.198 -0.006 -0.0543 0.198 -0.0543
1708773336.4900 0.201 -0.006 -0.0559 0.201 -0.0559
1708773336.4976 0.202 -0.006 -0.0559 0.203 -0.0559
1708773336.5055 0.205 -0.006 -0.0574 0.205 -0.0574
1708773336.5138 0.209 -0.006 -0.0590 0.209 -0.0590
1708773336.5224 0.212 -0.006 -0.0605 0.213 -0.0605
1708773336.5293 0.215 -0.007 -0.0590 0.215 -0.0590
1708773336.5378 0.218 -0.007 -0.0605 0.218 -0.0605
1708773336.5466 0.220 -0.007 -0.0636 0.220 -0.0636
1708773336.5538 0.224 -0.007 -0.0667 0.224 -0.0667
1708773336.5625 0.227 -0.007 -0.0636 0.227 -0.0636
1708773336.5695 0.230 -0.007 -0.0636 0.230 -0.0636
1708773336.5775 0.233 -0.008 -0.0652 0.233 -0.0652
1708773336.5858 0.236 -0.008 -0.0667 0.236 -0.0667
1708773336.5933 0.240 -0.008 -0.0667 0.240 -0.0667
1708773336.6012 0.243 -0.008 -0.0667 0.243 -0.0667
1708773336.6108 0.245 -0.008 -0.0667 0.245 -0.0667
1708773336.6177 0.248 -0.009 -0.0683 0.248 -0.0683
1708773336.6257 0.252 -0.009 -0.0667 0.252 -0.0667
1708773336.6343 0.255 -0.009 -0.0683 0.255 -0.0683
1708773336.6415 0.257 -0.009 -0.0683 0.258 -0.0683
1708773336.6492 0.261 -0.010 -0.0683 0.261 -0.0683
1708773336.6587 0.264 -0.010 -0.0699 0.265 -0.0699
1708773336.6658 0.267 -0.010 -0.0699 0.268 -0.0699
1708773336.6741 0.271 -0.010 -0.0714 0.271 -0.0714
1708773336.6827 0.274 -0.010 -0.0714 0.274 -0.0714
1708773336.6899 0.277 -0.011 -0.0730 0.277 -0.0730
1708773336.6980 0.281 -0.011 -0.0730 0.281 -0.0730
1708773336.7064 0.283 -0.011 -0.0714 0.283 -0.0714
1708773336.7136 0.286 -0.011 -0.0699 0.286 -0.0699
1708773336.7224 0.289 -0.012 -0.0714 0.290 -0.0714
1708773336.7299 0.293 -0.012 -0.0745 0.293 -0.0745
1708773336.7373 0.296 -0.012 -0.0745 0.296 -0.0745
1708773336.7453 0.299 -0.012 -0.0730 0.299 -0.0730
1708773336.7548 0.302 -0.013 -0.0714 0.302 -0.0714
1708773336.7621 0.305 -0.013 -0.0714 0.306 -0.0714
1708773336.7699 0.309 -0.013 -0.0730 0.309 -0.0730
1708773336.7781 0.312 -0.013 -0.0730 0.313 -0.0730
1708773336.7855 0.315 -0.013 -0.0745 0.315 -0.0745
1708773336.7932 0.318 -0.014 -0.0730 0.318 -0.0730
1708773336.8028 0.321 -0.014 -0.0714 0.322 -0.0714
1708773336.8099 0.325 -0.014 -0.0714 0.325 -0.0714
1708773336.8176 0.328 -0.014 -0.0745 0.329 -0.0745
1708773336.8259 0.331 -0.015 -0.0745 0.332 -0.0745
1708773336.8333 0.334 -0.015 -0.0730 0.334 -0.0730
1708773336.8412 0.337 -0.015 -0.0699 0.337 -0.0699
1708773336.8506 0.340 -0.015 -0.0730 0.341 -0.0730
1708773336.8579 0.344 -0.016 -0.0776 0.344 -0.0776
1708773336.8665 0.347 -0.016 -0.0776 0.347 -0.0776
1708773336.8748 0.350 -0.016 -0.0776 0.350 -0.0776
1708773336.8821 0.353 -0.016 -0.0745 0.353 -0.0745
1708773336.8902 0.356 -0.017 -0.0714 0.357 -0.0714
1708773336.8987 0.360 -0.017 -0.0776 0.360 -0.0776
1708773336.9059 0.363 -0.017 -0.0792 0.363 -0.0792
1708773336.9139 0.366 -0.017 -0.0761 0.366 -0.0761
1708773336.9229 0.369 -0.018 -0.0699 0.369 -0.0699
1708773336.9292 0.372 -0.018 -0.0699 0.372 -0.0699
1708773336.9382 0.375 -0.018 -0.0699 0.376 -0.0699
1708773336.9466 0.378 -0.018 -0.0699 0.379 -0.0699
1708773336.9537 0.382 -0.018 -0.0652 0.382 -0.0652
1708773336.9617 0.385 -0.019 -0.0652 0.385 -0.0652
1708773336.9699 0.388 -0.019 -0.0667 0.389 -0.0667
1708773336.9774 0.391 -0.019 -0.0652 0.392 -0.0652
1708773336.9853 0.394 -0.019 -0.0605 0.395 -0.0605
1708773336.9948 0.397 -0.019 -0.0590 0.398 -0.0590
1708773337.0019 0.401 -0.020 -0.0621 0.401 -0.0621
1708773337.0101 0.404 -0.020 -0.0636 0.405 -0.0636
1708773337.0181 0.407 -0.020 -0.0574 0.408 -0.0574
1708773337.0255 0.410 -0.020 -0.0512 0.411 -0.0512
1708773337.0333 0.413 -0.020 -0.0512 0.414 -0.0512
1708773337.0426 0.416 -0.020 -0.0528 0.417 -0.0528
1708773337.0499 0.419 -0.021 -0.0512 0.420 -0.0512
1708773337.0579 0.423 -0.021 -0.0481 0.424 -0.0481
1708773337.0670 0.426 -0.021 -0.0435 0.427 -0.0435
1708773337.0743 0.429 -0.021 -0.0435 0.430 -0.0435
1708773337.0813 0.432 -0.021 -0.0419 0.433 -0.0419
1708773337.0906 0.436 -0.021 -0.0388 0.437 -0.0388
1708773337.0978 0.439 -0.021 -0.0357 0.439 -0.0357
1708773337.1058 0.442 -0.022 -0.0357 0.442 -0.0357
1708773337.1141 0.445 -0.022 -0.0341 0.446 -0.0341
1708773337.1213 0.449 -0.022 -0.0310 0.449 -0.0310
1708773337.1293 0.451 -0.022 -0.0295 0.452 -0.0295
1708773337.1387 0.454 -0.022 -0.0279 0.455 -0.0279
1708773337.1459 0.457 -0.022 -0.0295 0.458 -0.0295
1708773337.1540 0.461 -0.022 -0.0264 0.462 -0.0264
1708773337.1623 0.464 -0.022 -0.0248 0.465 -0.0248
1708773337.1694 0.467 -0.022 -0.0233 0.468 -0.0233
1708773337.1781 0.470 -0.022 -0.0202 0.471 -0.0202
1708773337.1865 0.473 -0.022 -0.0186 0.474 -0.0186
1708773337.1942 0.477 -0.023 -0.0155 0.478 -0.0155
1708773337.2012 0.480 -0.023 -0.0140 0.481 -0.0140
1708773337.2106 0.483 -0.023 -0.0109 0.483 -0.0109
1708773337.2175 0.486 -0.023 -0.0078 0.486 -0.0078
1708773337.2253 0.489 -0.023 -0.0062 0.490 -0.0062
1708773337.2338 0.493 -0.023 -0.0062 0.493 -0.0062
1708773337.2412 0.496 -0.023 -0.0031 0.496 -0.0031
1708773337.2494 0.499 -0.023 0.0031 0.499 0.0031
1708773337.2589 0.502 -0.023 0.0031 0.502 0.0031
1708773337.2669 0.505 -0.023 -0.0000 0.506 -0.0000
1708773337.2739 0.509 -0.023 0.0016 0.510 0.0016
1708773337.2823 0.513 -0.023 0.0078 0.513 0.0078
1708773337.2897 0.515 -0.023 0.0140 0.515 0.0140
1708773337.2977 0.518 -0.023 0.0124 0.518 0.0124
1708773337.3084 0.521 -0.023 0.0093 0.522 0.0093
1708773337.3138 0.525 -0.023 0.0109 0.525 0.0109
1708773337.3218 0.528 -0.022 0.0155 0.529 0.0155
1708773337.3303 0.531 -0.022 0.0155 0.531 0.0155
1708773337.3378 0.533 -0.022 0.0155 0.534 0.0155
1708773337.3460 0.537 -0.022 0.0155 0.538 0.0155
1708773337.3547 0.540 -0.022 0.0171 0.541 0.0171
1708773337.3620 0.544 -0.022 0.0186 0.544 0.0186
1708773337.3700 0.546 -0.022 0.0171 0.547 0.0171
1708773337.3788 0.549 -0.022 0.0155 0.550 0.0155
1708773337.3853 0.552 -0.022 0.0171 0.553 0.0171
1708773337.3934 0.556 -0.022 0.0217 0.557 0.0217
1708773337.4030 0.559 -0.022 0.0233 0.560 0.0233
1708773337.4094 0.562 -0.022 0.0202 0.562 0.0202
1708773337.4181 0.565 -0.022 0.0186 0.566 0.0186
1708773337.4269 0.568 -0.022 0.0217 0.569 0.0217
1708773337.4334 0.571 -0.022 0.0248 0.572 0.0248
1708773337.4416 0.574 -0.022 0.0248 0.575 0.0248
1708773337.4500 0.577 -0.022 0.0202 0.578 0.0202
1708773337.4573 0.581 -0.021 0.0186 0.581 0.0186
1708773337.4661 0.584 -0.021 0.0217 0.585 0.0217
1708773337.4746 0.587 -0.021 0.0248 0.587 0.0248
1708773337.4821 0.590 -0.021 0.0248 0.590 0.0248
1708773337.4893 0.593 -0.021 0.0233 0.594 0.0233
1708773337.4987 0.596 -0.021 0.0217 0.597 0.0217
1708773337.5062 0.599 -0.021 0.0233 0.600 0.0233
1708773337.5139 0.602 -0.021 0.0233 0.603 0.0233
1708773337.5226 0.606 -0.021 0.0233 0.606 0.0233
1708773337.5300 0.609 -0.021 0.0233 0.610 0.0233
1708773337.5380 0.612 -0.021 0.0233 0.613 0.0233
1708773337.5465 0.615 -0.021 0.0248 0.616 0.0248
1708773337.5538 0.618 -0.021 0.0248 0.619 0.0248
1708773337.5619 0.622 -0.021 0.0248 0.622 0.0248
1708773337.5704 0.625 -0.020 0.0217 0.626 0.0217
1708773337.5779 0.628 -0.020 0.0217 0.628 0.0217
1708773337.5859 0.631 -0.020 0.0248 0.631 0.0248
1708773337.5943 0.634 -0.020 0.0248 0.635 0.0248
1708773337.6017 0.638 -0.020 0.0217 0.638 0.0217
1708773337.6096 0.641 -0.020 0.0217 0.641 0.0217
1708773337.6187 0.643 -0.020 0.0233 0.644 0.0233
1708773337.6262 0.647 -0.020 0.0248 0.647 0.0248
1708773337.6343 0.651 -0.020 0.0233 0.651 0.0233
1708773337.6428 0.654 -0.020 0.0202 0.654 0.0202
1708773337.6492 0.656 -0.020 0.0233 0.657 0.0233
1708773337.6573 0.659 -0.020 0.0233 0.660 0.0233
1708773337.6678 0.663 -0.020 0.0202 0.663 0.0202
1708773337.6740 0.666 -0.020 0.0171 0.667 0.0171
1708773337.6815 0.670 -0.019 0.0155 0.670 0.0155
1708773337.6899 0.672 -0.019 0.0186 0.673 0.0186
1708773337.6973 0.675 -0.019 0.0233 0.675 0.0233
1708773337.7053 0.678 -0.019 0.0217 0.679 0.0217
1708773337.7150 0.682 -0.019 0.0186 0.682 0.0186
1708773337.7220 0.685 -0.019 0.0171 0.686 0.0171
1708773337.7303 0.688 -0.019 0.0186 0.689 0.0186
1708773337.7380 0.691 -0.019 0.0233 0.692 0.0233
1708773337.7455 0.694 -0.019 0.0217 0.695 0.0217
1708773337.7534 0.697 -0.019 0.0186 0.698 0.0186
1708773337.7629 0.701 -0.019 0.0171 0.701 0.0171
1708773337.7701 0.704 -0.019 0.0217 0.705 0.0217
1708773337.7780 0.707 -0.019 0.0248 0.708 0.0248
1708773337.7865 0.711 -0.019 0.0202 0.711 0.0202
1708773337.7939 0.714 -0.019 0.0171 0.714 0.0171
1708773337.8021 0.717 -0.019 0.0186 0.717 0.0186
1708773337.8109 0.720 -0.018 0.0233 0.721 0.0233
1708773337.8180 0.723 -0.018 0.0279 0.724 0.0279
1708773337.8262 0.727 -0.018 0.0248 0.727 0.0248
1708773337.8349 0.729 -0.018 0.0202 0.730 0.0202
1708773337.8423 0.733 -0.018 0.0217 0.733 0.0217
1708773337.8494 0.736 -0.018 0.0248 0.737 0.0248
1708773337.8583 0.739 -0.018 0.0264 0.740 0.0264
1708773337.8663 0.742 -0.018 0.0248 0.743 0.0248
1708773337.8734 0.745 -0.018 0.0264 0.746 0.0264
1708773337.8829 0.749 -0.018 0.0264 0.749 0.0264
1708773337.8893 0.752 -0.018 0.0295 0.752 0.0295
1708773337.8977 0.754 -0.018 0.0310 0.755 0.0310
1708773337.9061 0.758 -0.017 0.0295 0.758 0.0295
1708773337.9135 0.761 -0.017 0.0295 0.762 0.0295
1708773337.9212 0.764 -0.017 0.0326 0.765 0.0326
1708773337.9309 0.767 -0.017 0.0341 0.768 0.0341
1708773337.9373 0.770 -0.017 0.0341 0.771 0.0341
1708773337.9453 0.773 -0.017 0.0341 0.774 0.0341
1708773337.9548 0.776 -0.017 0.0373 0.777 0.0373
1708773337.9621 0.780 -0.017 0.0419 0.780 0.0419
1708773337.9699 0.783 -0.017 0.0435 0.783 0.0435
1708773337.9787 0.786 -0.016 0.0404 0.786 0.0404
1708773337.9865 0.789 -0.016 0.0419 0.790 0.0419
1708773337.9933 0.792 -0.016 0.0481 0.793 0.0481
1708773338.0029 0.795 -0.016 0.0543 0.796 0.0543
1708773338.0095 0.798 -0.016 0.0512 0.798 0.0512
1708773338.0173 0.801 -0.016 0.0512 0.802 0.0512
1708773338.0260 0.804 -0.016 0.0574 0.805 0.0574
1708773338.0340 0.808 -0.015 0.0621 0.808 0.0621
1708773338.0422 0.810 -0.015 0.0636 0.811 0.0636
1708773338.0500 0.814 -0.015 0.0636 0.815 0.0636
1708773338.0577 0.818 -0.015 0.0667 0.818 0.0667
1708773338.0663 0.821 -0.015 0.0699 0.821 0.0699
1708773338.0740 0.823 -0.014 0.0730 0.824 0.0730
1708773338.0815 0.827 -0.014 0.0761 0.827 0.0761
1708773338.0897 0.830 -0.014 0.0792 0.831 0.0792
1708773338.0981 0.833 -0.014 0.0807 0.834 0.0807
1708773338.1057 0.836 -0.013 0.0823 0.837 0.0823
1708773338.1137 0.839 -0.013 0.0854 0.840 0.0854
1708773338.1221 0.843 -0.013 0.0900 0.843 0.0900
1708773338.1299 0.845 -0.012 0.0916 0.846 0.0916
1708773338.1381 0.849 -0.012 0.0947 0.850 0.0947
1708773338.1466 0.852 -0.012 0.0962 0.853 0.0962
1708773338.1540 0.856 -0.012 0.0978 0.856 0.0978
1708773338.1622 0.859 -0.011 0.1009 0.859 0.1009
1708773338.1703 0.861 -0.011 0.1040 0.862 0.1040
1708773338.1778 0.865 -0.011 0.1071 0.865 0.1071
1708773338.1858 0.868 -0.010 0.1102 0.869 0.1102
1708773338.1945 0.871 -0.010 0.1087 0.872 0.1087
1708773338.2020 0.874 -0.010 0.1102 0.875 0.1102
1708773338.2101 0.877 -0.009 0.1118 0.878 0.1118
1708773338.2187 0.881 -0.009 0.1149 0.882 0.1149
1708773338.2259 0.884 -0.008 0.1164 0.885 0.1164
1708773338.2340 0.888 -0.008 0.1180 0.889 0.1180
1708773338.2425 0.890 -0.008 0.1195 0.892 0.1195
1708773338.2499 0.893 -0.007 0.1226 0.895 0.1226
1708773338.2577 0.897 -0.007 0.1242 0.898 0.1242
1708773338.2670 0.900 -0.006 0.1257 0.902 0.1257
1708773338.2738 0.903 -0.006 0.1273 0.905 0.1273
1708773338.2819 0.906 -0.006 0.1304 0.908 0.1304
1708773338.2907 0.909 -0.005 0.1304 0.911 0.1304
1708773338.2981 0.913 -0.005 0.1288 0.914 0.1288
1708773338.3059 0.916 -0.004 0.1304 0.918 0.1304
1708773338.3143 0.919 -0.004 0.1335 0.920 0.1335
1708773338.3216 0.922 -0.004 0.1366 0.923 0.1366
1708773338.3297 0.925 -0.003 0.1382 0.926 0.1382
1708773338.3380 0.928 -0.003 0.1397 0.930 0.1397
1708773338.3463 0.931 -0.002 0.1397 0.933 0.1397
1708773338.3535 0.935 -0.002 0.1397 0.936 0.1397
1708773338.3619 0.938 -0.001 0.1413 0.939 0.1413
1708773338.3702 0.941 -0.001 0.1428 0.942 0.1428
1708773338.3773 0.943 -0.001 0.1413 0.945 0.1413
1708773338.3869 0.947 -0.000 0.1428 0.949 0.1428
1708773338.3941 0.951 0.000 0.1475 0.952 0.1475
1708773338.4021 0.954 0.001 0.1475 0.956 0.1475
1708773338.4108 0.957 0.001 0.1475 0.959 0.1475
1708773338.4182 0.960 0.002 0.1428 0.961 0.1428
1708773338.4253 0.963 0.002 0.1428 0.964 0.1428
1708773338.4348 0.966 0.003 0.1459 0.968 0.1459
1708773338.4420 0.969 0.003 0.1490 0.971 0.1490
1708773338.4503 0.972 0.004 0.1475 0.974 0.1475
1708773338.4590 0.976 0.004 0.1444 0.978 0.1444
1708773338.4671 0.979 0.005 0.1444 0.981 0.1444
1708773338.4740 0.982 0.005 0.1490 0.984 0.1490
1708773338.4823 0.985 0.006 0.1490 0.988 0.1490
1708773338.4898 0.988 0.006 0.1459 0.991 0.1459
1708773338.4978 0.991 0.006 0.1413 0.993 0.1413
1708773338.5061 0.994 0.007 0.1428 0.997 0.1428
1708773338.5137 0.998 0.007 0.1475 1.000 0.1475
1708773338.5215 1.001 0.008 0.1459 1.003 0.1459
1708773338.5299 1.004 0.008 0.1397 1.006 0.1397
1708773338.5375 1.007 0.009 0.1413 1.009 0.1413
1708773338.5454 1.010 0.009 0.1428 1.012 0.1428
1708773338.5539 1.013 0.010 0.1428 1.016 0.1428
1708773338.5615 1.017 0.010 0.1382 1.019 0.1382
1708773338.5702 1.019 0.010 0.1366 1.022 0.1366
1708773338.5790 1.023 0.011 0.1382 1.025 0.1382
1708773338.5853 1.026 0.011 0.1382 1.028 0.1382
1708773338.5937 1.030 0.012 0.1366 1.032 0.1366
1708773338.6021 1.032 0.012 0.1335 1.035 0.1335
1708773338.6096 1.035 0.013 0.1319 1.037 0.1319
1708773338.6182 1.038 0.013 0.1288 1.041 0.1288
1708773338.6268 1.042 0.013 0.1288 1.044 0.1288
1708773338.6341 1.045 0.014 0.1304 1.047 0.1304
1708773338.6422 1.048 0.014 0.1273 1.051 0.1273
1708773338.6509 1.051 0.015 0.1242 1.054 0.1242
1708773338.6573 1.054 0.015 0.1226 1.057 0.1226
1708773338.6669 1.057 0.015 0.1226 1.060 0.1226
1708773338.6742 1.060 0.016 0.1226 1.063 0.1226
1708773338.6822 1.064 0.016 0.1195 1.067 0.1195
1708773338.6893 1.067 0.017 0.1164 1.070 0.1164
1708773338.6989 1.070 0.017 0.1149 1.072 0.1149
1708773338.7062 1.072 0.017 0.1164 1.075 0.1164
1708773338.7142 1.076 0.018 0.1164 1.079 0.1164
1708773338.7224 1.079 0.018 0.1133 1.082 0.1133
1708773338.7298 1.083 0.018 0.1087 1.086 0.1087
1708773338.7378 1.085 0.019 0.1071 1.088 0.1071
1708773338.7463 1.088 0.019 0.1056 1.091 0.1056
1708773338.7536 1.092 0.019 0.1071 1.095 0.1071
1708773338.7617 1.095 0.020 0.1056 1.098 0.1056
1708773338.7711 1.099 0.020 0.1040 1.102 0.1040
1708773338.7774 1.101 0.020 0.1024 1.104 0.1024
1708773338.7853 1.104 0.021 0.0993 1.107 0.0993
1708773338.7948 1.108 0.021 0.0978 1.111 0.0978
1708773338.8020 1.111 0.021 0.0962 1.114 0.0962
1708773338.8100 1.114 0.022 0.0947 1.117 0.0947
1708773338.8184 1.117 0.022 0.0931 1.120 0.0931
1708773338.8260 1.120 0.022 0.0900 1.123 0.0900
1708773338.8342 1.124 0.023 0.0869 1.127 0.0869
1708773338.8427 1.127 0.023 0.0869 1.130 0.0869
1708773338.8500 1.130 0.023 0.0885 1.133 0.0885
1708773338.8580 1.133 0.023 0.0854 1.136 0.0854
1708773338.8672 1.136 0.024 0.0792 1.139 0.0792
1708773338.8735 1.139 0.024 0.0745 1.143 0.0745
1708773338.8815 1.143 0.024 0.0776 1.146 0.0776
1708773338.8911 1.145 0.024 0.0776 1.149 0.0776
1708773338.8974 1.148 0.025 0.0761 1.151 0.0761
1708773338.9053 1.152 0.025 0.0714 1.155 0.0714
1708773338.9147 1.155 0.025 0.0683 1.158 0.0683
1708773338.9218 1.157 0.025 0.0667 1.160 0.0667
1708773338.9296 1.161 0.025 0.0667 1.164 0.0667
1708773338.9383 1.164 0.026 0.0636 1.168 0.0636
1708773338.9456 1.168 0.026 0.0621 1.171 0.0621
1708773338.9536 1.170 0.026 0.0574 1.174 0.0574
1708773338.9619 1.173 0.026 0.0574 1.176 0.0574
1708773338.9700 1.177 0.026 0.0590 1.180 0.0590
1708773338.9783 1.180 0.027 0.0559 1.184 0.0559
1708773338.9869 1.183 0.027 0.0528 1.187 0.0528
1708773338.9943 1.186 0.027 0.0497 1.189 0.0497
