% Pose without folding and reset (log_20240224_144411.041/log_pose_abs.txt)
% 1 	Time (sec)
% 2,3 	Position x,y (m)
% 4 	heading (rad)
% 5 	Driven distance (m) - signed
% 6 	Turned angle (rad) - signed
1708782251.5220 0.000 0.000 0.0000 0.000 0.0000
1708782251.5303 0.000 0.000 0.0000 0.000 0.0000
1708782251.5375 0.000 0.000 0.0000 0.000 0.0000
1708782251.5445 0.000 0.000 0.0000 0.000 0.0000
1708782251.5535 0.000 0.000 0.0031 0.000 0.0031
1708782251.5606 0.004 0.000 0.0031 0.004 0.0031
1708782251.5693 0.007 0.000 0.0000 0.007 0.0000
1708782251.5775 0.009 0.000 0.0000 0.009 0.0000
1708782251.5850 0.011 0.000 0.0031 0.011 0.0031
1708782251.5926 0.014 0.000 0.0062 0.014 0.0062
1708782251.6014 0.018 0.000 0.0062 0.018 0.0062
1708782251.6085 0.022 0.000 0.0062 0.022 0.0062
1708782251.6173 0.027 0.000 0.0062 0.027 0.0062
1708782251.6254 0.032 0.000 0.0047 0.032 0.0047
1708782251.6340 0.038 0.000 0.0016 0.038 0.0016
1708782251.6417 0.044 0.000 0.0000 0.044 0.0000
1708782251.6498 0.050 0.000 0.0000 0.050 0.0000
1708782251.6611 0.057 0.000 0.0000 0.057 0.0000
1708782251.6657 0.063 0.000 0.0016 0.063 0.0016
1708782251.6738 0.069 0.000 0.0000 0.069 0.0000
1708782251.6821 0.074 0.000 0.0016 0.074 0.0016
1708782251.6899 0.080 0.000 0.0016 0.080 0.0016
1708782251.6976 0.088 0.000 0.0047 0.088 0.0047
1708782251.7049 0.094 0.000 0.0031 0.094 0.0031
1708782251.7138 0.100 0.000 0.0016 0.100 0.0016
1708782251.7217 0.106 0.000 0.0031 0.106 0.0031
1708782251.7298 0.113 0.000 0.0031 0.113 0.0031
1708782251.7376 0.119 0.000 0.0016 0.119 0.0016
1708782251.7457 0.125 0.000 -0.0016 0.125 -0.0016
1708782251.7539 0.132 0.000 0.0000 0.132 0.0000
1708782251.7616 0.138 0.000 0.0000 0.138 0.0000
1708782251.7695 0.145 0.000 -0.0016 0.145 -0.0016
1708782251.7783 0.151 0.000 0.0016 0.151 0.0016
1708782251.7849 0.158 0.000 0.0016 0.158 0.0016
1708782251.7931 0.164 0.000 0.0016 0.164 0.0016
1708782251.8012 0.171 0.000 0.0016 0.171 0.0016
1708782251.8089 0.178 0.000 0.0000 0.178 0.0000
1708782251.8171 0.185 0.000 0.0016 0.185 0.0016
1708782251.8252 0.192 0.000 0.0016 0.192 0.0016
1708782251.8335 0.199 0.000 0.0016 0.199 0.0016
1708782251.8416 0.206 0.000 0.0031 0.206 0.0031
1708782251.8498 0.213 0.000 0.0031 0.213 0.0031
1708782251.8572 0.220 0.000 0.0016 0.220 0.0016
1708782251.8653 0.226 0.000 0.0016 0.226 0.0016
1708782251.8735 0.232 0.000 0.0016 0.232 0.0016
1708782251.8818 0.239 0.000 0.0000 0.239 0.0000
1708782251.8900 0.246 0.000 -0.0016 0.246 -0.0016
1708782251.8979 0.253 0.000 0.0000 0.253 0.0000
1708782251.9056 0.260 0.000 0.0016 0.260 0.0016
1708782251.9136 0.266 0.000 -0.0016 0.266 -0.0016
1708782251.9218 0.273 0.000 -0.0047 0.273 -0.0047
1708782251.9290 0.279 0.000 -0.0047 0.279 -0.0047
1708782251.9371 0.285 0.000 -0.0093 0.285 -0.0093
1708782251.9452 0.292 0.000 -0.0093 0.292 -0.0093
1708782251.9538 0.298 0.000 -0.0078 0.298 -0.0078
1708782251.9620 0.305 0.000 -0.0109 0.305 -0.0109
1708782251.9691 0.311 0.000 -0.0140 0.311 -0.0140
1708782251.9784 0.318 -0.000 -0.0171 0.318 -0.0171
1708782251.9854 0.324 -0.000 -0.0186 0.324 -0.0186
1708782251.9934 0.330 -0.000 -0.0202 0.330 -0.0202
1708782252.0011 0.336 -0.000 -0.0217 0.336 -0.0217
1708782252.0092 0.342 -0.001 -0.0248 0.342 -0.0248
1708782252.0173 0.348 -0.001 -0.0295 0.348 -0.0295
1708782252.0254 0.355 -0.001 -0.0326 0.355 -0.0326
1708782252.0340 0.361 -0.001 -0.0310 0.361 -0.0310
1708782252.0411 0.368 -0.001 -0.0295 0.368 -0.0295
1708782252.0498 0.374 -0.001 -0.0341 0.374 -0.0341
1708782252.0580 0.380 -0.002 -0.0373 0.380 -0.0373
1708782252.0651 0.386 -0.002 -0.0404 0.386 -0.0404
1708782252.0738 0.393 -0.002 -0.0404 0.393 -0.0404
1708782252.0814 0.398 -0.002 -0.0404 0.398 -0.0404
1708782252.0895 0.404 -0.003 -0.0435 0.404 -0.0435
1708782252.0972 0.411 -0.003 -0.0435 0.411 -0.0435
1708782252.1049 0.418 -0.003 -0.0435 0.418 -0.0435
1708782252.1131 0.424 -0.004 -0.0435 0.424 -0.0435
1708782252.1218 0.430 -0.004 -0.0419 0.430 -0.0419
1708782252.1295 0.436 -0.004 -0.0419 0.436 -0.0419
1708782252.1378 0.443 -0.004 -0.0419 0.443 -0.0419
1708782252.1454 0.450 -0.005 -0.0450 0.450 -0.0450
1708782252.1536 0.456 -0.005 -0.0419 0.456 -0.0419
1708782252.1617 0.461 -0.005 -0.0388 0.462 -0.0388
1708782252.1691 0.468 -0.005 -0.0373 0.468 -0.0373
1708782252.1779 0.476 -0.006 -0.0373 0.476 -0.0373
1708782252.1850 0.482 -0.006 -0.0388 0.482 -0.0388
1708782252.1931 0.488 -0.006 -0.0357 0.488 -0.0357
1708782252.2013 0.493 -0.006 -0.0326 0.494 -0.0326
1708782252.2095 0.500 -0.007 -0.0341 0.500 -0.0341
1708782252.2172 0.507 -0.007 -0.0357 0.507 -0.0357
1708782252.2258 0.514 -0.007 -0.0326 0.514 -0.0326
1708782252.2339 0.520 -0.007 -0.0295 0.520 -0.0295
1708782252.2418 0.526 -0.007 -0.0310 0.527 -0.0310
1708782252.2499 0.533 -0.008 -0.0357 0.534 -0.0357
1708782252.2582 0.540 -0.008 -0.0326 0.540 -0.0326
1708782252.2650 0.546 -0.008 -0.0279 0.546 -0.0279
1708782252.2732 0.552 -0.008 -0.0264 0.552 -0.0264
1708782252.2810 0.557 -0.008 -0.0279 0.557 -0.0279
1708782252.2899 0.564 -0.009 -0.0264 0.564 -0.0264
1708782252.2971 0.571 -0.009 -0.0248 0.571 -0.0248
1708782252.3055 0.578 -0.009 -0.0248 0.578 -0.0248
1708782252.3136 0.585 -0.009 -0.0248 0.585 -0.0248
1708782252.3297 0.597 -0.009 -0.0217 0.597 -0.0217
1708782252.3380 0.603 -0.009 -0.0171 0.603 -0.0171
1708782252.3451 0.609 -0.010 -0.0155 0.610 -0.0155
1708782252.3532 0.616 -0.010 -0.0155 0.616 -0.0155
1708782252.3610 0.622 -0.010 -0.0140 0.623 -0.0140
1708782252.3692 0.628 -0.010 -0.0109 0.629 -0.0109
1708782252.3781 0.635 -0.010 -0.0109 0.635 -0.0109
1708782252.3859 0.642 -0.010 -0.0140 0.643 -0.0140
1708782252.3930 0.649 -0.010 -0.0124 0.649 -0.0124
1708782252.4014 0.655 -0.010 -0.0093 0.655 -0.0093
1708782252.4093 0.660 -0.010 -0.0062 0.660 -0.0062
1708782252.4174 0.667 -0.010 -0.0047 0.667 -0.0047
1708782252.4257 0.674 -0.010 -0.0062 0.674 -0.0062
1708782252.4330 0.680 -0.010 -0.0031 0.680 -0.0031
1708782252.4410 0.686 -0.010 0.0000 0.687 0.0000
1708782252.4493 0.692 -0.010 0.0031 0.693 0.0031
1708782252.4571 0.699 -0.010 0.0000 0.699 0.0000
1708782252.4653 0.705 -0.010 0.0016 0.706 0.0016
1708782252.4736 0.712 -0.010 0.0047 0.712 0.0047
1708782252.4810 0.718 -0.010 0.0062 0.718 0.0062
1708782252.4891 0.724 -0.010 0.0047 0.724 0.0047
1708782252.4974 0.730 -0.010 0.0047 0.730 0.0047
1708782252.5052 0.737 -0.010 0.0062 0.737 0.0062
1708782252.5134 0.744 -0.010 0.0078 0.744 0.0078
1708782252.5217 0.750 -0.010 0.0109 0.750 0.0109
1708782252.5289 0.756 -0.010 0.0109 0.756 0.0109
1708782252.5371 0.763 -0.010 0.0109 0.763 0.0109
1708782252.5454 0.769 -0.010 0.0140 0.769 0.0140
1708782252.5531 0.776 -0.010 0.0140 0.776 0.0140
1708782252.5613 0.782 -0.010 0.0155 0.782 0.0155
1708782252.5696 0.789 -0.010 0.0155 0.789 0.0155
1708782252.5780 0.795 -0.009 0.0155 0.795 0.0155
1708782252.5851 0.802 -0.009 0.0155 0.802 0.0155
1708782252.5934 0.809 -0.009 0.0186 0.809 0.0186
1708782252.6019 0.815 -0.009 0.0217 0.815 0.0217
1708782252.6090 0.821 -0.009 0.0217 0.821 0.0217
1708782252.6182 0.827 -0.009 0.0217 0.827 0.0217
1708782252.6259 0.833 -0.009 0.0233 0.833 0.0233
1708782252.6337 0.840 -0.008 0.0233 0.840 0.0233
1708782252.6413 0.847 -0.008 0.0248 0.847 0.0248
1708782252.6491 0.853 -0.008 0.0248 0.853 0.0248
1708782252.6576 0.858 -0.008 0.0248 0.859 0.0248
1708782252.6657 0.865 -0.008 0.0248 0.865 0.0248
1708782252.6735 0.872 -0.008 0.0264 0.872 0.0264
1708782252.6813 0.879 -0.008 0.0279 0.879 0.0279
1708782252.6895 0.885 -0.007 0.0264 0.885 0.0264
1708782252.6973 0.890 -0.007 0.0264 0.890 0.0264
1708782252.7055 0.897 -0.007 0.0248 0.897 0.0248
1708782252.7136 0.904 -0.007 0.0264 0.904 0.0264
1708782252.7214 0.911 -0.007 0.0295 0.911 0.0295
1708782252.7292 0.916 -0.006 0.0310 0.917 0.0310
1708782252.7375 0.922 -0.006 0.0310 0.923 0.0310
1708782252.7455 0.929 -0.006 0.0279 0.929 0.0279
1708782252.7535 0.936 -0.006 0.0279 0.936 0.0279
1708782252.7618 0.942 -0.006 0.0326 0.942 0.0326
1708782252.7695 0.948 -0.006 0.0326 0.948 0.0326
1708782252.7784 0.954 -0.005 0.0310 0.955 0.0310
1708782252.7857 0.961 -0.005 0.0310 0.961 0.0310
1708782252.7936 0.968 -0.005 0.0310 0.968 0.0310
1708782252.8016 0.974 -0.005 0.0341 0.974 0.0341
1708782252.8099 0.979 -0.005 0.0341 0.980 0.0341
1708782252.8178 0.986 -0.004 0.0326 0.986 0.0326
1708782252.8251 0.993 -0.004 0.0279 0.993 0.0279
1708782252.8330 1.000 -0.004 0.0295 1.000 0.0295
1708782252.8418 1.006 -0.004 0.0326 1.006 0.0326
1708782252.8498 1.012 -0.004 0.0295 1.012 0.0295
1708782252.8570 1.019 -0.003 0.0279 1.019 0.0279
1708782252.8658 1.025 -0.003 0.0279 1.026 0.0279
1708782252.8742 1.031 -0.003 0.0310 1.032 0.0310
1708782252.8810 1.038 -0.003 0.0310 1.038 0.0310
1708782252.8896 1.044 -0.003 0.0310 1.044 0.0310
1708782252.8978 1.050 -0.002 0.0295 1.050 0.0295
1708782252.9051 1.056 -0.002 0.0295 1.057 0.0295
1708782252.9139 1.063 -0.002 0.0295 1.064 0.0295
1708782252.9222 1.069 -0.002 0.0310 1.070 0.0310
1708782252.9290 1.076 -0.002 0.0310 1.076 0.0310
1708782252.9377 1.082 -0.001 0.0310 1.083 0.0310
1708782252.9460 1.088 -0.001 0.0295 1.088 0.0295
1708782252.9531 1.095 -0.001 0.0295 1.095 0.0295
1708782252.9620 1.101 -0.001 0.0279 1.102 0.0279
1708782252.9702 1.108 -0.001 0.0279 1.108 0.0279
1708782252.9790 1.114 -0.001 0.0264 1.114 0.0264
1708782252.9857 1.120 -0.000 0.0279 1.121 0.0279
1708782252.9940 1.127 -0.000 0.0295 1.127 0.0295
1708782253.0015 1.132 0.000 0.0279 1.133 0.0279
1708782253.0095 1.138 0.000 0.0248 1.139 0.0248
1708782253.0177 1.145 0.000 0.0202 1.145 0.0202
1708782253.0258 1.152 0.000 0.0186 1.152 0.0186
1708782253.0332 1.159 0.001 0.0202 1.159 0.0202
1708782253.0426 1.164 0.001 0.0217 1.165 0.0217
1708782253.0497 1.170 0.001 0.0202 1.171 0.0202
1708782253.0574 1.177 0.001 0.0171 1.177 0.0171
1708782253.0656 1.184 0.001 0.0124 1.184 0.0124
1708782253.0736 1.190 0.001 0.0109 1.190 0.0109
1708782253.0811 1.196 0.001 0.0140 1.196 0.0140
1708782253.0904 1.202 0.001 0.0124 1.203 0.0124
1708782253.0976 1.209 0.001 0.0093 1.209 0.0093
1708782253.1050 1.216 0.001 0.0062 1.216 0.0062
1708782253.1140 1.221 0.001 0.0078 1.222 0.0078
1708782253.1212 1.227 0.001 0.0078 1.227 0.0078
1708782253.1297 1.233 0.002 0.0078 1.233 0.0078
1708782253.1380 1.240 0.002 0.0047 1.240 0.0047
1708782253.1451 1.247 0.002 0.0016 1.247 0.0016
1708782253.1540 1.252 0.002 0.0016 1.252 0.0016
1708782253.1622 1.257 0.002 0.0016 1.258 0.0016
1708782253.1695 1.264 0.002 0.0016 1.264 0.0016
1708782253.1784 1.271 0.002 0.0000 1.272 0.0000
1708782253.1866 1.278 0.002 -0.0031 1.278 -0.0031
1708782253.1938 1.284 0.002 -0.0047 1.285 -0.0047
1708782253.2018 1.290 0.002 -0.0047 1.291 -0.0047
1708782253.2098 1.296 0.002 -0.0047 1.297 -0.0047
1708782253.2170 1.303 0.002 -0.0062 1.303 -0.0062
1708782253.2258 1.309 0.001 -0.0078 1.309 -0.0078
1708782253.2336 1.315 0.001 -0.0093 1.315 -0.0093
1708782253.2418 1.322 0.001 -0.0093 1.322 -0.0093
1708782253.2494 1.329 0.001 -0.0109 1.329 -0.0109
1708782253.2576 1.336 0.001 -0.0109 1.336 -0.0109
1708782253.2659 1.342 0.001 -0.0109 1.342 -0.0109
1708782253.2737 1.348 0.001 -0.0109 1.348 -0.0109
1708782253.2816 1.355 0.001 -0.0124 1.355 -0.0124
1708782253.2898 1.361 0.001 -0.0124 1.361 -0.0124
1708782253.2974 1.367 0.001 -0.0124 1.367 -0.0124
1708782253.3056 1.373 0.001 -0.0124 1.374 -0.0124
1708782253.3139 1.380 0.001 -0.0109 1.380 -0.0109
1708782253.3217 1.387 0.001 -0.0124 1.387 -0.0124
1708782253.3306 1.394 0.001 -0.0140 1.394 -0.0140
1708782253.3376 1.399 0.000 -0.0124 1.400 -0.0124
1708782253.3454 1.406 0.000 -0.0109 1.406 -0.0109
1708782253.3535 1.412 0.000 -0.0124 1.413 -0.0124
1708782253.3619 1.418 0.000 -0.0140 1.418 -0.0140
1708782253.3697 1.425 0.000 -0.0109 1.425 -0.0109
1708782253.3786 1.432 0.000 -0.0093 1.432 -0.0093
1708782253.3856 1.438 0.000 -0.0062 1.439 -0.0062
1708782253.3933 1.445 -0.000 -0.0078 1.445 -0.0078
1708782253.4016 1.451 -0.000 -0.0078 1.451 -0.0078
1708782253.4090 1.457 -0.000 -0.0062 1.457 -0.0062
1708782253.4179 1.464 -0.000 -0.0062 1.464 -0.0062
1708782253.4262 1.470 -0.000 -0.0047 1.471 -0.0047
1708782253.4338 1.477 -0.000 -0.0031 1.477 -0.0031
1708782253.4417 1.483 -0.000 -0.0016 1.483 -0.0016
1708782253.4499 1.489 -0.000 0.0000 1.489 0.0000
1708782253.4570 1.495 -0.000 0.0031 1.495 0.0031
1708782253.4658 1.502 -0.000 0.0031 1.502 0.0031
1708782253.4738 1.508 -0.000 0.0047 1.508 0.0047
1708782253.4817 1.514 -0.000 0.0047 1.515 0.0047
1708782253.4895 1.521 -0.000 0.0078 1.521 0.0078
1708782253.4977 1.527 -0.000 0.0093 1.528 0.0093
1708782253.5059 1.534 -0.000 0.0109 1.534 0.0109
1708782253.5137 1.540 0.000 0.0124 1.540 0.0124
1708782253.5217 1.547 0.000 0.0140 1.547 0.0140
1708782253.5296 1.553 0.000 0.0140 1.553 0.0140
1708782253.5374 1.559 0.000 0.0155 1.559 0.0155
1708782253.5459 1.565 0.000 0.0171 1.566 0.0171
1708782253.5531 1.572 0.001 0.0202 1.572 0.0202
1708782253.5619 1.579 0.001 0.0217 1.579 0.0217
1708782253.5699 1.584 0.001 0.0233 1.585 0.0233
1708782253.5778 1.591 0.001 0.0248 1.591 0.0248
1708782253.5857 1.597 0.001 0.0248 1.598 0.0248
1708782253.5939 1.604 0.001 0.0264 1.604 0.0264
1708782253.6019 1.610 0.001 0.0264 1.610 0.0264
1708782253.6095 1.616 0.002 0.0295 1.616 0.0295
1708782253.6178 1.623 0.002 0.0326 1.623 0.0326
1708782253.6251 1.630 0.002 0.0341 1.630 0.0341
1708782253.6336 1.635 0.002 0.0373 1.636 0.0373
1708782253.6420 1.641 0.002 0.0373 1.641 0.0373
1708782253.6492 1.647 0.003 0.0388 1.648 0.0388
1708782253.6580 1.655 0.003 0.0388 1.655 0.0388
1708782253.6666 1.661 0.003 0.0419 1.661 0.0419
1708782253.6732 1.667 0.004 0.0450 1.668 0.0450
1708782253.6817 1.674 0.004 0.0481 1.674 0.0481
1708782253.6901 1.680 0.004 0.0466 1.680 0.0466
1708782253.6982 1.686 0.004 0.0481 1.687 0.0481
1708782253.7060 1.693 0.005 0.0497 1.694 0.0497
1708782253.7142 1.700 0.005 0.0497 1.700 0.0497
1708782253.7214 1.705 0.005 0.0497 1.706 0.0497
1708782253.7299 1.711 0.006 0.0512 1.712 0.0512
1708782253.7382 1.718 0.006 0.0559 1.719 0.0559
1708782253.7452 1.725 0.006 0.0574 1.725 0.0574
1708782253.7540 1.732 0.007 0.0574 1.732 0.0574
1708782253.7622 1.737 0.007 0.0590 1.738 0.0590
1708782253.7694 1.743 0.008 0.0605 1.744 0.0605
1708782253.7779 1.750 0.008 0.0605 1.750 0.0605
1708782253.7861 1.756 0.008 0.0621 1.757 0.0621
1708782253.7930 1.763 0.009 0.0636 1.763 0.0636
1708782253.8019 1.769 0.009 0.0652 1.769 0.0652
1708782253.8102 1.775 0.010 0.0683 1.775 0.0683
1708782253.8173 1.782 0.010 0.0683 1.782 0.0683
1708782253.8251 1.788 0.010 0.0683 1.789 0.0683
1708782253.8337 1.794 0.011 0.0699 1.795 0.0699
1708782253.8420 1.800 0.011 0.0745 1.801 0.0745
1708782253.8498 1.807 0.012 0.0761 1.807 0.0761
1708782253.8580 1.813 0.012 0.0730 1.814 0.0730
1708782253.8652 1.820 0.013 0.0745 1.820 0.0745
1708782253.8739 1.826 0.013 0.0761 1.826 0.0761
1708782253.8815 1.831 0.014 0.0745 1.832 0.0745
1708782253.8898 1.838 0.014 0.0745 1.839 0.0745
1708782253.8976 1.845 0.015 0.0761 1.846 0.0761
1708782253.9058 1.851 0.015 0.0745 1.852 0.0745
1708782253.9131 1.857 0.016 0.0745 1.858 0.0745
1708782253.9219 1.863 0.016 0.0761 1.864 0.0761
1708782253.9296 1.870 0.017 0.0776 1.871 0.0776
1708782253.9379 1.877 0.017 0.0761 1.878 0.0761
1708782253.9457 1.883 0.018 0.0761 1.884 0.0761
1708782253.9540 1.889 0.018 0.0776 1.890 0.0776
1708782253.9611 1.896 0.018 0.0776 1.897 0.0776
1708782253.9697 1.902 0.019 0.0776 1.903 0.0776
1708782253.9786 1.908 0.019 0.0776 1.909 0.0776
1708782253.9858 1.915 0.020 0.0792 1.916 0.0792
1708782253.9937 1.922 0.021 0.0792 1.923 0.0792
1708782254.0020 1.928 0.021 0.0792 1.929 0.0792
1708782254.0180 1.940 0.022 0.0745 1.941 0.0745
1708782254.0263 1.947 0.022 0.0730 1.948 0.0730
1708782254.0332 1.954 0.023 0.0745 1.955 0.0745
1708782254.0411 1.960 0.023 0.0745 1.961 0.0745
1708782254.0505 1.965 0.024 0.0730 1.966 0.0730
1708782254.0576 1.971 0.024 0.0699 1.972 0.0699
1708782254.0654 1.978 0.025 0.0683 1.979 0.0683
1708782254.0736 1.985 0.025 0.0667 1.986 0.0667
1708782254.0815 1.990 0.026 0.0683 1.992 0.0683
1708782254.0892 1.996 0.026 0.0652 1.998 0.0652
1708782254.0985 2.003 0.026 0.0652 2.004 0.0652
1708782254.1051 2.010 0.027 0.0636 2.011 0.0636
1708782254.1139 2.017 0.027 0.0636 2.018 0.0636
1708782254.1222 2.023 0.028 0.0636 2.024 0.0636
1708782254.1290 2.029 0.028 0.0621 2.030 0.0621
1708782254.1378 2.036 0.028 0.0621 2.037 0.0621
1708782254.1460 2.042 0.029 0.0621 2.043 0.0621
1708782254.1530 2.048 0.029 0.0605 2.050 0.0605
1708782254.1619 2.055 0.030 0.0574 2.056 0.0574
1708782254.1701 2.060 0.030 0.0590 2.062 0.0590
1708782254.1780 2.067 0.030 0.0590 2.068 0.0590
1708782254.1857 2.074 0.031 0.0559 2.075 0.0559
1708782254.1938 2.080 0.031 0.0559 2.081 0.0559
1708782254.2010 2.086 0.031 0.0543 2.087 0.0543
1708782254.2099 2.092 0.032 0.0497 2.093 0.0497
1708782254.2181 2.099 0.032 0.0497 2.100 0.0497
1708782254.2253 2.105 0.032 0.0481 2.107 0.0481
1708782254.2337 2.112 0.033 0.0466 2.113 0.0466
1708782254.2420 2.117 0.033 0.0466 2.119 0.0466
1708782254.2494 2.124 0.033 0.0450 2.125 0.0450
1708782254.2572 2.130 0.034 0.0419 2.132 0.0419
1708782254.2665 2.137 0.034 0.0373 2.138 0.0373
1708782254.2736 2.143 0.034 0.0388 2.144 0.0388
1708782254.2811 2.149 0.034 0.0388 2.151 0.0388
1708782254.2901 2.156 0.035 0.0404 2.157 0.0404
1708782254.2973 2.162 0.035 0.0373 2.163 0.0373
1708782254.3051 2.168 0.035 0.0341 2.170 0.0341
1708782254.3143 2.174 0.035 0.0357 2.176 0.0357
1708782254.3215 2.180 0.035 0.0373 2.182 0.0373
1708782254.3290 2.187 0.036 0.0373 2.189 0.0373
1708782254.3384 2.194 0.036 0.0357 2.195 0.0357
1708782254.3456 2.200 0.036 0.0326 2.201 0.0326
1708782254.3534 2.206 0.036 0.0341 2.208 0.0341
1708782254.3616 2.213 0.037 0.0357 2.214 0.0357
1708782254.3698 2.219 0.037 0.0357 2.220 0.0357
1708782254.3782 2.225 0.037 0.0357 2.226 0.0357
1708782254.3864 2.232 0.037 0.0357 2.234 0.0357
1708782254.3936 2.239 0.037 0.0357 2.240 0.0357
1708782254.4013 2.245 0.038 0.0341 2.247 0.0341
1708782254.4105 2.250 0.038 0.0373 2.252 0.0373
1708782254.4175 2.257 0.038 0.0388 2.258 0.0388
1708782254.4253 2.264 0.038 0.0388 2.265 0.0388
1708782254.4342 2.270 0.039 0.0388 2.272 0.0388
1708782254.4414 2.277 0.039 0.0450 2.278 0.0450
1708782254.4492 2.283 0.039 0.0466 2.284 0.0466
1708782254.4585 2.289 0.039 0.0435 2.290 0.0435
1708782254.4655 2.295 0.040 0.0419 2.297 0.0419
1708782254.4734 2.303 0.040 0.0435 2.304 0.0435
1708782254.4823 2.309 0.040 0.0450 2.311 0.0450
1708782254.4897 2.314 0.041 0.0466 2.316 0.0466
1708782254.4974 2.321 0.041 0.0466 2.322 0.0466
1708782254.5056 2.327 0.041 0.0450 2.329 0.0450
1708782254.5137 2.334 0.041 0.0466 2.335 0.0466
1708782254.5215 2.340 0.042 0.0466 2.342 0.0466
1708782254.5304 2.346 0.042 0.0466 2.348 0.0466
1708782254.5376 2.351 0.042 0.0388 2.353 0.0388
1708782254.5454 2.358 0.043 0.0404 2.359 0.0404
1708782254.5545 2.365 0.043 0.0435 2.366 0.0435
1708782254.5617 2.371 0.043 0.0466 2.372 0.0466
1708782254.5694 2.377 0.043 0.0481 2.379 0.0481
1708782254.5783 2.384 0.044 0.0497 2.385 0.0497
1708782254.5855 2.390 0.044 0.0497 2.392 0.0497
1708782254.5933 2.396 0.044 0.0512 2.398 0.0512
1708782254.6019 2.402 0.045 0.0528 2.404 0.0528
1708782254.6091 2.408 0.045 0.0543 2.410 0.0543
1708782254.6180 2.416 0.045 0.0543 2.417 0.0543
1708782254.6263 2.422 0.046 0.0543 2.423 0.0543
1708782254.6330 2.428 0.046 0.0559 2.430 0.0559
1708782254.6419 2.435 0.046 0.0574 2.437 0.0574
1708782254.6504 2.441 0.047 0.0574 2.443 0.0574
1708782254.6576 2.447 0.047 0.0574 2.449 0.0574
1708782254.6654 2.454 0.048 0.0559 2.456 0.0559
1708782254.6736 2.460 0.048 0.0574 2.462 0.0574
1708782254.6815 2.466 0.048 0.0605 2.468 0.0605
1708782254.6891 2.473 0.049 0.0590 2.474 0.0590
1708782254.6984 2.479 0.049 0.0559 2.481 0.0559
1708782254.7055 2.485 0.049 0.0559 2.487 0.0559
1708782254.7133 2.492 0.050 0.0559 2.494 0.0559
1708782254.7226 2.498 0.050 0.0574 2.500 0.0574
1708782254.7295 2.504 0.050 0.0590 2.506 0.0590
1708782254.7371 2.511 0.051 0.0590 2.513 0.0590
1708782254.7464 2.517 0.051 0.0590 2.519 0.0590
1708782254.7536 2.523 0.052 0.0590 2.525 0.0590
1708782254.7614 2.529 0.052 0.0574 2.531 0.0574
1708782254.7696 2.536 0.052 0.0574 2.538 0.0574
