% Pose without folding and reset (log_20240216_154541.397/log_pose_abs.txt)
% 1 	Time (sec)
% 2,3 	Position x,y (m)
% 4 	heading (rad)
% 5 	Driven distance (m) - signed
% 6 	Turned angle (rad) - signed
1708094741.5126 0.000 0.000 0.0000 0.000 0.0000
1708094741.5201 0.000 0.000 0.0000 0.000 0.0000
1708094741.5273 0.000 0.000 0.0000 0.000 0.0000
1708094741.5361 0.000 0.000 0.0000 0.000 0.0000
1708094741.5442 0.000 0.000 0.0000 0.000 0.0000
1708094741.5518 0.000 0.000 0.0000 0.000 0.0000
1708094741.5597 0.000 0.000 0.0000 0.000 0.0000
1708094741.5680 0.000 0.000 0.0000 0.000 0.0000
1708094741.5753 0.000 0.000 0.0000 0.000 0.0000
1708094741.5835 0.000 0.000 0.0000 0.000 0.0000
1708094741.5913 0.000 0.000 0.0000 0.000 0.0000
1708094741.6003 0.000 0.000 0.0000 0.000 0.0000
1708094741.6078 0.000 0.000 0.0000 0.000 0.0000
1708094741.6163 0.000 0.000 0.0000 0.000 0.0000
1708094741.6237 0.000 0.000 0.0000 0.000 0.0000
1708094741.6318 0.000 0.000 0.0000 0.000 0.0000
1708094741.6403 0.000 0.000 0.0000 0.000 0.0000
1708094741.6476 0.000 0.000 0.0000 0.000 0.0000
1708094741.6555 0.001 -0.000 -0.0016 0.001 -0.0016
1708094741.6637 0.002 -0.000 -0.0109 0.002 -0.0109
1708094741.6717 0.003 -0.000 -0.0217 0.003 -0.0217
1708094741.6799 0.004 -0.000 -0.0373 0.004 -0.0373
1708094741.6877 0.005 -0.000 -0.0543 0.005 -0.0543
1708094741.6962 0.006 -0.000 -0.0699 0.006 -0.0699
1708094741.7034 0.008 -0.000 -0.0854 0.008 -0.0854
1708094741.7117 0.009 -0.000 -0.1009 0.009 -0.1009
1708094741.7203 0.010 -0.001 -0.1195 0.010 -0.1195
1708094741.7275 0.011 -0.001 -0.1397 0.011 -0.1397
1708094741.7353 0.013 -0.001 -0.1599 0.013 -0.1599
1708094741.7443 0.014 -0.001 -0.1785 0.015 -0.1785
1708094741.7523 0.016 -0.001 -0.1956 0.016 -0.1956
1708094741.7602 0.017 -0.002 -0.2173 0.017 -0.2173
1708094741.7681 0.018 -0.002 -0.2390 0.018 -0.2390
1708094741.7757 0.020 -0.002 -0.2577 0.020 -0.2577
1708094741.7848 0.021 -0.003 -0.2763 0.022 -0.2763
1708094741.7915 0.023 -0.003 -0.2996 0.023 -0.2996
1708094741.7999 0.024 -0.004 -0.3213 0.024 -0.3213
1708094741.8079 0.025 -0.004 -0.3399 0.026 -0.3399
1708094741.8156 0.027 -0.005 -0.3617 0.027 -0.3617
1708094741.8237 0.028 -0.005 -0.3756 0.029 -0.3756
1708094741.8322 0.029 -0.005 -0.3694 0.030 -0.3694
1708094741.8396 0.030 -0.006 -0.3601 0.031 -0.3601
1708094741.8478 0.032 -0.007 -0.3524 0.033 -0.3524
1708094741.8561 0.034 -0.007 -0.3430 0.035 -0.3430
1708094741.8642 0.035 -0.008 -0.3368 0.036 -0.3368
1708094741.8719 0.037 -0.008 -0.3260 0.038 -0.3260
1708094741.8798 0.038 -0.009 -0.3136 0.039 -0.3136
1708094741.8873 0.038 -0.009 -0.3136 0.039 -0.3136
1708094741.8959 0.040 -0.009 -0.2965 0.041 -0.2965
1708094741.9042 0.042 -0.010 -0.2763 0.044 -0.2763
1708094741.9113 0.044 -0.011 -0.2577 0.046 -0.2577
1708094741.9198 0.046 -0.011 -0.2422 0.048 -0.2422
1708094741.9281 0.047 -0.011 -0.2282 0.049 -0.2282
1708094741.9357 0.049 -0.012 -0.2111 0.050 -0.2111
1708094741.9440 0.051 -0.012 -0.1925 0.052 -0.1925
1708094741.9522 0.053 -0.012 -0.1723 0.055 -0.1723
1708094741.9602 0.054 -0.013 -0.1521 0.056 -0.1521
1708094741.9678 0.056 -0.013 -0.1304 0.058 -0.1304
1708094741.9753 0.057 -0.013 -0.1118 0.059 -0.1118
1708094741.9834 0.059 -0.013 -0.0931 0.061 -0.0931
1708094741.9913 0.061 -0.013 -0.0714 0.063 -0.0714
1708094741.9995 0.063 -0.013 -0.0481 0.064 -0.0481
1708094742.0082 0.064 -0.014 -0.0248 0.066 -0.0248
1708094742.0160 0.066 -0.014 -0.0016 0.068 -0.0016
1708094742.0233 0.068 -0.014 0.0233 0.070 0.0233
1708094742.0320 0.069 -0.013 0.0481 0.071 0.0481
1708094742.0400 0.071 -0.013 0.0683 0.072 0.0683
1708094742.0483 0.072 -0.013 0.0916 0.074 0.0916
1708094742.0554 0.074 -0.013 0.1133 0.076 0.1133
1708094742.0632 0.076 -0.013 0.1397 0.078 0.1397
1708094742.0724 0.077 -0.013 0.1614 0.079 0.1614
1708094742.0796 0.079 -0.012 0.1832 0.081 0.1832
1708094742.0878 0.081 -0.012 0.2064 0.082 0.2064
1708094742.0961 0.082 -0.012 0.2313 0.084 0.2313
1708094742.1033 0.084 -0.011 0.2546 0.086 0.2546
1708094742.1122 0.085 -0.011 0.2779 0.087 0.2779
1708094742.1201 0.087 -0.010 0.3027 0.089 0.3027
1708094742.1272 0.089 -0.010 0.3291 0.091 0.3291
1708094742.1362 0.090 -0.009 0.3508 0.092 0.3508
1708094742.1433 0.092 -0.009 0.3725 0.094 0.3725
1708094742.1517 0.093 -0.008 0.4005 0.096 0.4005
1708094742.1594 0.095 -0.007 0.4253 0.098 0.4253
1708094742.1687 0.096 -0.007 0.4470 0.099 0.4470
1708094742.1752 0.098 -0.006 0.4719 0.101 0.4719
1708094742.1842 0.099 -0.005 0.4967 0.103 0.4967
1708094742.1923 0.101 -0.004 0.5185 0.104 0.5185
1708094742.2013 0.102 -0.003 0.5433 0.106 0.5433
1708094742.2076 0.104 -0.002 0.5728 0.108 0.5728
1708094742.2153 0.105 -0.001 0.5976 0.110 0.5976
1708094742.2232 0.106 -0.001 0.6162 0.111 0.6162
1708094742.2322 0.107 -0.000 0.6364 0.112 0.6364
1708094742.2394 0.109 0.001 0.6675 0.114 0.6675
1708094742.2479 0.111 0.003 0.6954 0.116 0.6954
1708094742.2558 0.112 0.003 0.7171 0.118 0.7171
1708094742.2633 0.113 0.004 0.7373 0.119 0.7373
1708094742.2717 0.114 0.006 0.7606 0.121 0.7606
1708094742.2796 0.115 0.007 0.7870 0.122 0.7870
1708094742.2878 0.117 0.008 0.8118 0.124 0.8118
1708094742.2960 0.118 0.009 0.8289 0.126 0.8289
1708094742.3040 0.118 0.010 0.8413 0.127 0.8413
1708094742.3117 0.119 0.011 0.8506 0.129 0.8506
1708094742.3196 0.120 0.012 0.8553 0.130 0.8553
1708094742.3276 0.121 0.013 0.8584 0.131 0.8584
1708094742.3358 0.122 0.014 0.8537 0.132 0.8537
1708094742.3440 0.123 0.015 0.8444 0.134 0.8444
1708094742.3515 0.124 0.016 0.8336 0.135 0.8336
1708094742.3598 0.125 0.017 0.8211 0.136 0.8211
1708094742.3689 0.126 0.018 0.8087 0.138 0.8087
1708094742.3758 0.127 0.019 0.7979 0.139 0.7979
1708094742.3840 0.128 0.020 0.7854 0.141 0.7854
1708094742.3912 0.129 0.021 0.7715 0.142 0.7715
1708094742.4002 0.130 0.022 0.7559 0.144 0.7559
1708094742.4075 0.131 0.023 0.7404 0.145 0.7404
1708094742.4158 0.132 0.024 0.7234 0.147 0.7234
1708094742.4233 0.133 0.025 0.7078 0.148 0.7078
1708094742.4314 0.134 0.026 0.6892 0.149 0.6892
1708094742.4396 0.135 0.027 0.6721 0.151 0.6721
1708094742.4475 0.136 0.028 0.6535 0.152 0.6535
1708094742.4565 0.137 0.028 0.6349 0.153 0.6349
1708094742.4636 0.138 0.029 0.6131 0.155 0.6131
1708094742.4722 0.140 0.030 0.5930 0.157 0.5930
1708094742.4798 0.141 0.031 0.5697 0.158 0.5697
1708094742.4881 0.143 0.032 0.5479 0.160 0.5479
1708094742.4959 0.144 0.033 0.5278 0.162 0.5278
1708094742.5043 0.146 0.034 0.5107 0.164 0.5107
1708094742.5122 0.147 0.035 0.4983 0.165 0.4983
1708094742.5218 0.148 0.035 0.4859 0.167 0.4859
1708094742.5274 0.150 0.036 0.4734 0.168 0.4734
1708094742.5355 0.151 0.037 0.4626 0.170 0.4626
1708094742.5438 0.153 0.038 0.4610 0.171 0.4610
1708094742.5513 0.154 0.038 0.4641 0.173 0.4641
1708094742.5598 0.155 0.039 0.4626 0.174 0.4626
1708094742.5685 0.156 0.039 0.4626 0.175 0.4626
1708094742.5761 0.157 0.040 0.4641 0.176 0.4641
1708094742.5834 0.158 0.040 0.4657 0.178 0.4657
1708094742.5913 0.159 0.041 0.4688 0.179 0.4688
1708094742.6003 0.161 0.042 0.4688 0.180 0.4688
1708094742.6078 0.162 0.043 0.4672 0.182 0.4672
1708094742.6162 0.164 0.043 0.4641 0.184 0.4641
1708094742.6242 0.165 0.044 0.4641 0.185 0.4641
1708094742.6316 0.166 0.044 0.4641 0.187 0.4641
1708094742.6395 0.168 0.045 0.4626 0.188 0.4626
1708094742.6477 0.170 0.046 0.4641 0.190 0.4641
1708094742.6562 0.171 0.047 0.4672 0.192 0.4672
1708094742.6641 0.172 0.047 0.4719 0.193 0.4719
1708094742.6720 0.173 0.048 0.4765 0.194 0.4765
1708094742.6804 0.175 0.049 0.4781 0.197 0.4781
1708094742.6874 0.176 0.050 0.4750 0.198 0.4750
1708094742.6957 0.178 0.050 0.4734 0.199 0.4734
1708094742.7038 0.178 0.051 0.4688 0.200 0.4688
1708094742.7118 0.180 0.051 0.4657 0.202 0.4657
1708094742.7197 0.181 0.052 0.4564 0.204 0.4564
1708094742.7282 0.183 0.053 0.4470 0.205 0.4470
1708094742.7361 0.184 0.053 0.4393 0.207 0.4393
1708094742.7434 0.185 0.054 0.4300 0.208 0.4300
1708094742.7518 0.187 0.055 0.4176 0.210 0.4176
1708094742.7597 0.188 0.055 0.4067 0.211 0.4067
1708094742.7678 0.190 0.056 0.3958 0.213 0.3958
1708094742.7755 0.191 0.057 0.3850 0.215 0.3850
1708094742.7836 0.193 0.057 0.3741 0.216 0.3741
1708094742.7920 0.194 0.058 0.3632 0.218 0.3632
1708094742.7992 0.196 0.058 0.3601 0.219 0.3601
1708094742.8082 0.197 0.059 0.3617 0.221 0.3617
1708094742.8154 0.199 0.059 0.3632 0.223 0.3632
1708094742.8234 0.200 0.060 0.3617 0.224 0.3617
1708094742.8322 0.201 0.060 0.3601 0.225 0.3601
1708094742.8393 0.203 0.061 0.3617 0.227 0.3617
1708094742.8477 0.204 0.061 0.3663 0.228 0.3663
1708094742.8557 0.206 0.062 0.3725 0.230 0.3725
1708094742.8640 0.207 0.063 0.3756 0.232 0.3756
1708094742.8719 0.209 0.063 0.3787 0.233 0.3787
1708094742.8797 0.210 0.064 0.3850 0.235 0.3850
1708094742.8881 0.212 0.065 0.3912 0.237 0.3912
1708094742.8953 0.213 0.065 0.3958 0.238 0.3958
1708094742.9043 0.215 0.066 0.3974 0.240 0.3974
1708094742.9115 0.216 0.066 0.4036 0.241 0.4036
1708094742.9195 0.218 0.067 0.4176 0.243 0.4176
1708094742.9282 0.219 0.068 0.4253 0.244 0.4253
1708094742.9354 0.221 0.068 0.4253 0.246 0.4253
1708094742.9437 0.222 0.069 0.4284 0.248 0.4284
1708094742.9517 0.224 0.070 0.4362 0.250 0.4362
1708094742.9597 0.225 0.071 0.4424 0.251 0.4424
1708094742.9687 0.227 0.071 0.4424 0.253 0.4424
1708094742.9754 0.228 0.072 0.4408 0.254 0.4408
1708094742.9836 0.229 0.072 0.4439 0.256 0.4439
1708094742.9919 0.231 0.073 0.4486 0.257 0.4486
1708094742.9998 0.232 0.074 0.4486 0.259 0.4486
1708094743.0073 0.233 0.074 0.4470 0.260 0.4470
1708094743.0160 0.235 0.075 0.4455 0.262 0.4455
1708094743.0235 0.236 0.076 0.4424 0.263 0.4424
1708094743.0319 0.238 0.076 0.4424 0.265 0.4424
1708094743.0403 0.239 0.077 0.4408 0.267 0.4408
1708094743.0482 0.241 0.078 0.4377 0.268 0.4377
1708094743.0556 0.242 0.078 0.4315 0.270 0.4315
1708094743.0638 0.243 0.079 0.4269 0.271 0.4269
1708094743.0713 0.245 0.080 0.4253 0.273 0.4253
1708094743.0797 0.246 0.080 0.4222 0.275 0.4222
1708094743.0882 0.248 0.081 0.4176 0.276 0.4176
1708094743.0961 0.249 0.082 0.4098 0.278 0.4098
1708094743.1042 0.251 0.082 0.4113 0.279 0.4113
1708094743.1114 0.252 0.083 0.4145 0.281 0.4145
1708094743.1200 0.253 0.083 0.4191 0.282 0.4191
1708094743.1273 0.255 0.084 0.4191 0.284 0.4191
1708094743.1356 0.256 0.085 0.4160 0.286 0.4160
1708094743.1434 0.258 0.086 0.4160 0.287 0.4160
1708094743.1516 0.259 0.086 0.4222 0.289 0.4222
1708094743.1599 0.261 0.087 0.4284 0.290 0.4284
1708094743.1686 0.262 0.088 0.4331 0.292 0.4331
1708094743.1759 0.264 0.088 0.4377 0.294 0.4377
1708094743.1842 0.266 0.089 0.4470 0.296 0.4470
1708094743.1921 0.267 0.090 0.4564 0.297 0.4564
1708094743.1993 0.268 0.090 0.4688 0.299 0.4688
1708094743.2076 0.270 0.091 0.4781 0.300 0.4781
1708094743.2159 0.271 0.092 0.4859 0.302 0.4859
1708094743.2239 0.273 0.093 0.4952 0.303 0.4952
1708094743.2322 0.275 0.094 0.5014 0.306 0.5014
1708094743.2399 0.276 0.094 0.5045 0.307 0.5045
1708094743.2472 0.277 0.095 0.5091 0.309 0.5091
1708094743.2556 0.278 0.096 0.5122 0.310 0.5122
1708094743.2635 0.280 0.097 0.5153 0.312 0.5153
1708094743.2714 0.282 0.098 0.5200 0.314 0.5200
1708094743.2798 0.283 0.098 0.5231 0.315 0.5231
1708094743.2876 0.284 0.099 0.5247 0.316 0.5247
1708094743.2959 0.286 0.100 0.5247 0.318 0.5247
1708094743.3043 0.287 0.101 0.5247 0.320 0.5247
1708094743.3122 0.288 0.101 0.5247 0.321 0.5247
1708094743.3200 0.289 0.102 0.5231 0.323 0.5231
1708094743.3272 0.291 0.103 0.5169 0.325 0.5169
1708094743.3361 0.292 0.104 0.5107 0.326 0.5107
1708094743.3434 0.294 0.104 0.5045 0.328 0.5045
1708094743.3517 0.295 0.105 0.4967 0.329 0.4967
1708094743.3596 0.296 0.106 0.4874 0.331 0.4874
1708094743.3686 0.298 0.107 0.4765 0.332 0.4765
1708094743.3757 0.299 0.107 0.4672 0.334 0.4672
1708094743.3836 0.301 0.108 0.4564 0.336 0.4564
1708094743.3929 0.302 0.109 0.4455 0.337 0.4455
1708094743.3992 0.303 0.109 0.4331 0.339 0.4331
1708094743.4076 0.305 0.110 0.4222 0.340 0.4222
1708094743.4159 0.306 0.111 0.4129 0.341 0.4129
1708094743.4238 0.307 0.111 0.4005 0.343 0.4005
1708094743.4317 0.309 0.112 0.3865 0.345 0.3865
1708094743.4399 0.310 0.112 0.3725 0.346 0.3725
1708094743.4483 0.312 0.113 0.3617 0.348 0.3617
1708094743.4570 0.313 0.113 0.3493 0.349 0.3493
1708094743.4640 0.315 0.114 0.3322 0.351 0.3322
1708094743.4720 0.317 0.115 0.3151 0.353 0.3151
1708094743.4799 0.318 0.115 0.3011 0.355 0.3011
1708094743.4873 0.320 0.116 0.2841 0.356 0.2841
1708094743.4956 0.322 0.116 0.2685 0.358 0.2685
1708094743.5035 0.324 0.117 0.2499 0.360 0.2499
1708094743.5116 0.325 0.117 0.2313 0.362 0.2313
1708094743.5196 0.327 0.118 0.2111 0.364 0.2111
1708094743.5276 0.329 0.118 0.1909 0.366 0.1909
1708094743.5361 0.331 0.118 0.1707 0.367 0.1707
1708094743.5442 0.333 0.119 0.1552 0.369 0.1552
1708094743.5521 0.334 0.119 0.1428 0.371 0.1428
1708094743.5594 0.336 0.119 0.1304 0.372 0.1304
1708094743.5685 0.337 0.119 0.1195 0.374 0.1195
1708094743.5754 0.339 0.119 0.1118 0.375 0.1118
1708094743.5837 0.340 0.120 0.1087 0.377 0.1087
1708094743.5920 0.342 0.120 0.1071 0.379 0.1071
1708094743.5997 0.343 0.120 0.1024 0.379 0.1024
1708094743.6081 0.344 0.120 0.0962 0.381 0.0962
1708094743.6153 0.346 0.120 0.0885 0.383 0.0885
1708094743.6238 0.348 0.120 0.0776 0.385 0.0776
1708094743.6322 0.349 0.120 0.0652 0.386 0.0652
1708094743.6395 0.351 0.120 0.0528 0.387 0.0528
1708094743.6483 0.353 0.121 0.0373 0.390 0.0373
1708094743.6556 0.355 0.121 0.0217 0.392 0.0217
1708094743.6640 0.356 0.121 0.0109 0.393 0.0109
1708094743.6714 0.358 0.121 -0.0031 0.395 -0.0031
1708094743.6794 0.360 0.121 -0.0186 0.396 -0.0186
1708094743.6881 0.361 0.121 -0.0357 0.398 -0.0357
1708094743.6960 0.363 0.121 -0.0512 0.400 -0.0512
1708094743.7034 0.365 0.120 -0.0667 0.402 -0.0667
1708094743.7117 0.367 0.120 -0.0807 0.404 -0.0807
1708094743.7193 0.368 0.120 -0.0962 0.405 -0.0962
1708094743.7276 0.370 0.120 -0.1056 0.407 -0.1056
1708094743.7358 0.371 0.120 -0.1118 0.408 -0.1118
1708094743.7437 0.373 0.120 -0.1226 0.409 -0.1226
1708094743.7520 0.374 0.119 -0.1366 0.411 -0.1366
1708094743.7593 0.376 0.119 -0.1475 0.412 -0.1475
1708094743.7679 0.377 0.119 -0.1552 0.414 -0.1552
1708094743.7762 0.378 0.119 -0.1614 0.415 -0.1614
1708094743.7834 0.380 0.119 -0.1661 0.417 -0.1661
1708094743.7912 0.382 0.118 -0.1754 0.419 -0.1754
1708094743.7995 0.383 0.118 -0.1832 0.420 -0.1832
1708094743.8078 0.384 0.118 -0.1909 0.421 -0.1909
1708094743.8157 0.386 0.118 -0.1940 0.423 -0.1940
1708094743.8234 0.387 0.117 -0.1987 0.424 -0.1987
1708094743.8318 0.389 0.117 -0.2018 0.426 -0.2018
1708094743.8402 0.390 0.117 -0.2049 0.427 -0.2049
1708094743.8475 0.391 0.116 -0.2049 0.428 -0.2049
1708094743.8563 0.393 0.116 -0.2049 0.430 -0.2049
1708094743.8641 0.394 0.116 -0.2049 0.431 -0.2049
1708094743.8718 0.395 0.116 -0.2033 0.432 -0.2033
1708094743.8801 0.397 0.115 -0.2018 0.434 -0.2018
1708094743.8879 0.399 0.115 -0.2018 0.436 -0.2018
1708094743.8963 0.400 0.115 -0.2018 0.438 -0.2018
1708094743.9035 0.401 0.114 -0.1956 0.439 -0.1956
1708094743.9123 0.403 0.114 -0.1940 0.440 -0.1940
1708094743.9203 0.405 0.114 -0.1987 0.442 -0.1987
1708094743.9276 0.406 0.113 -0.2033 0.444 -0.2033
1708094743.9355 0.408 0.113 -0.2002 0.445 -0.2002
1708094743.9433 0.409 0.113 -0.1925 0.447 -0.1925
1708094743.9517 0.411 0.112 -0.1925 0.448 -0.1925
1708094743.9595 0.412 0.112 -0.1987 0.450 -0.1987
1708094743.9686 0.414 0.112 -0.2049 0.452 -0.2049
1708094743.9759 0.416 0.111 -0.2033 0.453 -0.2033
1708094743.9837 0.417 0.111 -0.2049 0.455 -0.2049
1708094743.9920 0.419 0.111 -0.2096 0.456 -0.2096
1708094743.9994 0.420 0.110 -0.2142 0.458 -0.2142
1708094744.0083 0.422 0.110 -0.2158 0.460 -0.2158
1708094744.0155 0.423 0.110 -0.2173 0.461 -0.2173
1708094744.0235 0.424 0.110 -0.2204 0.462 -0.2204
1708094744.0314 0.426 0.109 -0.2251 0.464 -0.2251
1708094744.0396 0.428 0.109 -0.2266 0.466 -0.2266
1708094744.0481 0.430 0.108 -0.2251 0.468 -0.2251
1708094744.0560 0.431 0.108 -0.2251 0.469 -0.2251
1708094744.0639 0.432 0.108 -0.2297 0.470 -0.2297
1708094744.0720 0.434 0.107 -0.2313 0.472 -0.2313
1708094744.0799 0.436 0.107 -0.2328 0.474 -0.2328
1708094744.0883 0.437 0.107 -0.2328 0.475 -0.2328
1708094744.0953 0.439 0.106 -0.2297 0.477 -0.2297
1708094744.1042 0.440 0.106 -0.2282 0.478 -0.2282
1708094744.1114 0.442 0.105 -0.2297 0.480 -0.2297
1708094744.1194 0.444 0.105 -0.2297 0.482 -0.2297
1708094744.1273 0.445 0.105 -0.2266 0.484 -0.2266
1708094744.1357 0.447 0.104 -0.2189 0.485 -0.2189
1708094744.1439 0.448 0.104 -0.2142 0.487 -0.2142
1708094744.1518 0.450 0.104 -0.2142 0.488 -0.2142
1708094744.1602 0.452 0.103 -0.2127 0.490 -0.2127
1708094744.1682 0.454 0.103 -0.2064 0.492 -0.2064
1708094744.1760 0.455 0.103 -0.2002 0.494 -0.2002
1708094744.1837 0.456 0.102 -0.1971 0.495 -0.1971
1708094744.1921 0.458 0.102 -0.1971 0.497 -0.1971
1708094744.1993 0.460 0.102 -0.1971 0.498 -0.1971
1708094744.2076 0.461 0.101 -0.1894 0.500 -0.1894
1708094744.2160 0.463 0.101 -0.1832 0.502 -0.1832
1708094744.2236 0.464 0.101 -0.1801 0.503 -0.1801
1708094744.2318 0.466 0.100 -0.1801 0.505 -0.1801
1708094744.2401 0.468 0.100 -0.1801 0.507 -0.1801
1708094744.2480 0.470 0.100 -0.1739 0.508 -0.1739
1708094744.2563 0.471 0.100 -0.1661 0.510 -0.1661
1708094744.2636 0.472 0.099 -0.1630 0.511 -0.1630
1708094744.2721 0.474 0.099 -0.1630 0.513 -0.1630
1708094744.2793 0.476 0.099 -0.1599 0.515 -0.1599
1708094744.2876 0.477 0.099 -0.1552 0.516 -0.1552
1708094744.2955 0.479 0.098 -0.1506 0.518 -0.1506
1708094744.3038 0.480 0.098 -0.1490 0.519 -0.1490
1708094744.3122 0.482 0.098 -0.1490 0.521 -0.1490
1708094744.3196 0.484 0.098 -0.1444 0.523 -0.1444
1708094744.3279 0.485 0.097 -0.1382 0.524 -0.1382
1708094744.3362 0.487 0.097 -0.1350 0.526 -0.1350
1708094744.3441 0.488 0.097 -0.1335 0.527 -0.1335
1708094744.3515 0.490 0.097 -0.1319 0.529 -0.1319
1708094744.3602 0.492 0.096 -0.1257 0.531 -0.1257
1708094744.3686 0.493 0.096 -0.1195 0.532 -0.1195
1708094744.3758 0.494 0.096 -0.1164 0.533 -0.1164
1708094744.3843 0.496 0.096 -0.1164 0.535 -0.1164
1708094744.3922 0.498 0.096 -0.1133 0.537 -0.1133
1708094744.3994 0.500 0.096 -0.1071 0.539 -0.1071
1708094744.4076 0.501 0.095 -0.1024 0.540 -0.1024
1708094744.4155 0.502 0.095 -0.0993 0.541 -0.0993
1708094744.4234 0.504 0.095 -0.0978 0.543 -0.0978
1708094744.4318 0.506 0.095 -0.0931 0.545 -0.0931
1708094744.4397 0.508 0.095 -0.0885 0.547 -0.0885
1708094744.4481 0.509 0.095 -0.0838 0.548 -0.0838
1708094744.4561 0.510 0.095 -0.0838 0.549 -0.0838
1708094744.4640 0.512 0.094 -0.0792 0.551 -0.0792
1708094744.4718 0.514 0.094 -0.0745 0.553 -0.0745
1708094744.4801 0.515 0.094 -0.0730 0.555 -0.0730
1708094744.4879 0.516 0.094 -0.0730 0.555 -0.0730
1708094744.4963 0.518 0.094 -0.0714 0.557 -0.0714
1708094744.5034 0.520 0.094 -0.0699 0.559 -0.0699
1708094744.5123 0.522 0.094 -0.0667 0.561 -0.0667
1708094744.5202 0.524 0.094 -0.0652 0.563 -0.0652
1708094744.5275 0.524 0.094 -0.0652 0.564 -0.0652
1708094744.5354 0.526 0.093 -0.0621 0.565 -0.0621
1708094744.5436 0.528 0.093 -0.0574 0.567 -0.0574
1708094744.5570 0.530 0.093 -0.0543 0.569 -0.0543
1708094744.5605 0.531 0.093 -0.0559 0.570 -0.0559
1708094744.5686 0.532 0.093 -0.0528 0.571 -0.0528
1708094744.5774 0.533 0.093 -0.0497 0.572 -0.0497
1708094744.5842 0.534 0.093 -0.0435 0.574 -0.0435
1708094744.5923 0.537 0.093 -0.0388 0.576 -0.0388
1708094744.5995 0.539 0.093 -0.0373 0.578 -0.0373
1708094744.6073 0.540 0.093 -0.0357 0.579 -0.0357
1708094744.6156 0.541 0.093 -0.0310 0.580 -0.0310
1708094744.6235 0.542 0.093 -0.0279 0.582 -0.0279
1708094744.6314 0.544 0.093 -0.0233 0.584 -0.0233
1708094744.6397 0.546 0.093 -0.0233 0.585 -0.0233
1708094744.6474 0.547 0.093 -0.0217 0.586 -0.0217
1708094744.6556 0.548 0.093 -0.0186 0.588 -0.0186
1708094744.6639 0.550 0.093 -0.0124 0.590 -0.0124
1708094744.6718 0.552 0.093 -0.0124 0.591 -0.0124
1708094744.6793 0.554 0.092 -0.0140 0.593 -0.0140
1708094744.6876 0.555 0.092 -0.0109 0.594 -0.0109
1708094744.6961 0.557 0.092 -0.0047 0.596 -0.0047
1708094744.7043 0.558 0.092 -0.0016 0.598 -0.0016
1708094744.7122 0.560 0.092 -0.0016 0.599 -0.0016
1708094744.7202 0.561 0.092 -0.0016 0.601 -0.0016
1708094744.7292 0.563 0.092 0.0016 0.602 0.0016
