% Pose without folding and reset (log_20240224_132318.182/log_pose_abs.txt)
% 1 	Time (sec)
% 2,3 	Position x,y (m)
% 4 	heading (rad)
% 5 	Driven distance (m) - signed
% 6 	Turned angle (rad) - signed
1708777398.9125 0.000 0.000 0.0000 0.000 0.0000
1708777398.9203 0.000 0.000 0.0000 0.000 0.0000
1708777398.9291 0.000 0.000 0.0000 0.000 0.0000
1708777398.9356 0.000 0.000 0.0000 0.000 0.0000
1708777398.9432 0.000 0.000 0.0000 0.000 0.0000
1708777398.9519 0.000 0.000 0.0000 0.000 0.0000
1708777398.9594 0.000 0.000 0.0000 0.000 0.0000
1708777398.9685 0.000 0.000 0.0000 0.000 0.0000
1708777398.9751 0.000 0.000 0.0000 0.000 0.0000
1708777398.9837 0.000 0.000 0.0000 0.000 0.0000
1708777398.9911 0.000 0.000 0.0000 0.000 0.0000
1708777398.9994 0.000 0.000 0.0000 0.000 0.0000
1708777399.0072 0.000 0.000 0.0000 0.000 0.0000
1708777399.0159 0.000 0.000 0.0000 0.000 0.0000
1708777399.0235 0.000 0.000 0.0000 0.000 0.0000
1708777399.0314 0.000 0.000 0.0000 0.000 0.0000
1708777399.0399 0.000 0.000 0.0016 0.000 0.0016
1708777399.0479 0.003 -0.000 -0.0031 0.003 -0.0031
1708777399.0552 0.005 -0.000 -0.0140 0.005 -0.0140
1708777399.0639 0.006 -0.000 -0.0140 0.006 -0.0140
1708777399.0725 0.008 -0.000 -0.0109 0.008 -0.0109
1708777399.0797 0.011 -0.000 -0.0093 0.011 -0.0093
1708777399.0879 0.014 -0.000 -0.0062 0.014 -0.0062
1708777399.0959 0.018 -0.000 -0.0062 0.018 -0.0062
1708777399.1033 0.021 -0.000 -0.0062 0.022 -0.0062
1708777399.1131 0.026 -0.000 -0.0047 0.026 -0.0047
1708777399.1193 0.031 -0.000 -0.0016 0.031 -0.0016
1708777399.1271 0.036 -0.000 -0.0031 0.036 -0.0031
1708777399.1362 0.041 -0.000 -0.0000 0.041 -0.0000
1708777399.1431 0.047 -0.000 -0.0000 0.047 -0.0000
1708777399.1520 0.052 -0.000 0.0031 0.052 0.0031
1708777399.1602 0.058 -0.000 0.0047 0.058 0.0047
1708777399.1678 0.063 -0.000 0.0047 0.063 0.0047
1708777399.1759 0.069 -0.000 0.0047 0.069 0.0047
1708777399.1841 0.074 -0.000 0.0047 0.074 0.0047
1708777399.1912 0.080 -0.000 0.0047 0.080 0.0047
1708777399.1996 0.086 -0.000 0.0031 0.086 0.0031
1708777399.2078 0.092 -0.000 0.0031 0.092 0.0031
1708777399.2156 0.097 -0.000 0.0062 0.097 0.0062
1708777399.2239 0.103 0.000 0.0062 0.103 0.0062
1708777399.2315 0.108 0.000 0.0047 0.108 0.0047
1708777399.2397 0.114 0.000 0.0047 0.114 0.0047
1708777399.2472 0.120 0.000 0.0078 0.120 0.0078
1708777399.2558 0.125 0.000 0.0047 0.125 0.0047
1708777399.2634 0.131 0.000 0.0062 0.131 0.0062
1708777399.2717 0.138 0.000 0.0047 0.138 0.0047
1708777399.2794 0.144 0.000 0.0047 0.144 0.0047
1708777399.2879 0.150 0.000 0.0031 0.151 0.0031
1708777399.2955 0.156 0.000 0.0031 0.156 0.0031
1708777399.3031 0.162 0.000 0.0047 0.162 0.0047
1708777399.3117 0.169 0.000 0.0062 0.169 0.0062
1708777399.3194 0.175 0.000 0.0047 0.175 0.0047
1708777399.3270 0.181 0.000 0.0016 0.181 0.0016
1708777399.3402 0.186 0.000 0.0016 0.186 0.0016
1708777399.3468 0.191 0.000 -0.0000 0.191 -0.0000
1708777399.3521 0.197 0.000 -0.0000 0.197 -0.0000
1708777399.3595 0.203 0.000 -0.0000 0.203 -0.0000
1708777399.3683 0.208 0.000 0.0016 0.208 0.0016
1708777399.3758 0.213 0.000 0.0031 0.213 0.0031
1708777399.3833 0.219 0.000 0.0031 0.219 0.0031
1708777399.3920 0.225 0.000 0.0031 0.225 0.0031
1708777399.3995 0.230 0.000 0.0016 0.230 0.0016
1708777399.4079 0.235 0.000 0.0016 0.235 0.0016
1708777399.4156 0.241 0.000 0.0016 0.241 0.0016
1708777399.4238 0.247 0.000 -0.0000 0.247 -0.0000
1708777399.4315 0.252 0.000 -0.0000 0.252 -0.0000
1708777399.4400 0.257 0.000 0.0016 0.257 0.0016
1708777399.4476 0.263 0.001 0.0016 0.263 0.0016
1708777399.4560 0.268 0.000 -0.0031 0.268 -0.0031
1708777399.4637 0.274 0.000 -0.0047 0.274 -0.0047
1708777399.4718 0.279 0.000 -0.0016 0.279 -0.0016
1708777399.4796 0.285 0.000 -0.0000 0.285 -0.0000
1708777399.4883 0.291 0.000 -0.0016 0.291 -0.0016
1708777399.5056 0.301 0.000 -0.0078 0.301 -0.0078
1708777399.5115 0.306 0.000 -0.0078 0.306 -0.0078
1708777399.5198 0.312 0.000 -0.0062 0.312 -0.0062
1708777399.5277 0.316 0.000 -0.0031 0.316 -0.0031
1708777399.5356 0.322 0.000 -0.0016 0.322 -0.0016
1708777399.5432 0.328 0.000 -0.0031 0.328 -0.0031
1708777399.5519 0.334 0.000 -0.0047 0.334 -0.0047
1708777399.5595 0.339 0.000 -0.0047 0.339 -0.0047
1708777399.5677 0.345 0.000 -0.0047 0.345 -0.0047
1708777399.5756 0.350 0.000 -0.0031 0.350 -0.0031
1708777399.5837 0.356 0.000 -0.0031 0.356 -0.0031
1708777399.5913 0.361 0.000 -0.0047 0.361 -0.0047
1708777399.6000 0.367 0.000 -0.0062 0.367 -0.0062
1708777399.6081 0.372 0.000 -0.0047 0.372 -0.0047
1708777399.6156 0.378 0.000 -0.0031 0.378 -0.0031
1708777399.6240 0.384 0.000 -0.0031 0.384 -0.0031
1708777399.6321 0.389 0.000 -0.0047 0.389 -0.0047
1708777399.6397 0.395 -0.000 -0.0047 0.395 -0.0047
1708777399.6482 0.401 -0.000 -0.0000 0.401 -0.0000
1708777399.6559 0.406 -0.000 -0.0000 0.406 -0.0000
1708777399.6635 0.411 -0.000 -0.0031 0.411 -0.0031
1708777399.6725 0.417 -0.000 -0.0047 0.417 -0.0047
1708777399.6791 0.422 -0.000 -0.0031 0.422 -0.0031
1708777399.6878 0.428 -0.000 -0.0016 0.428 -0.0016
1708777399.6953 0.434 -0.000 -0.0016 0.434 -0.0016
1708777399.7030 0.439 -0.000 -0.0000 0.439 -0.0000
1708777399.7117 0.445 -0.000 0.0016 0.445 0.0016
1708777399.7195 0.451 -0.000 -0.0016 0.451 -0.0016
1708777399.7271 0.457 -0.000 -0.0016 0.457 -0.0016
1708777399.7359 0.462 -0.000 0.0016 0.462 0.0016
1708777399.7434 0.467 -0.000 0.0062 0.467 0.0062
1708777399.7511 0.473 -0.000 0.0062 0.473 0.0062
1708777399.7598 0.479 -0.000 0.0031 0.479 0.0031
1708777399.7680 0.484 -0.000 0.0016 0.484 0.0016
1708777399.7757 0.490 0.000 0.0031 0.490 0.0031
1708777399.7830 0.496 0.000 0.0047 0.496 0.0047
1708777399.7921 0.501 0.000 0.0016 0.501 0.0016
1708777399.7997 0.506 0.000 -0.0000 0.506 -0.0000
1708777399.8072 0.511 0.000 0.0016 0.511 0.0016
1708777399.8159 0.517 0.000 0.0016 0.517 0.0016
1708777399.8232 0.523 0.000 -0.0000 0.523 -0.0000
1708777399.8316 0.528 0.000 -0.0000 0.528 -0.0000
1708777399.8392 0.534 0.000 0.0016 0.534 0.0016
1708777399.8479 0.540 0.000 0.0016 0.540 0.0016
1708777399.8558 0.545 0.000 -0.0016 0.545 -0.0016
1708777399.8635 0.551 0.000 -0.0031 0.551 -0.0031
1708777399.8718 0.557 0.000 -0.0000 0.557 -0.0000
1708777399.8794 0.562 0.000 0.0031 0.562 0.0031
1708777399.8870 0.567 0.000 0.0016 0.567 0.0016
1708777399.8957 0.572 0.000 -0.0016 0.572 -0.0016
1708777399.9033 0.578 0.000 -0.0047 0.578 -0.0047
1708777399.9117 0.584 0.000 -0.0047 0.584 -0.0047
1708777399.9197 0.589 0.000 -0.0047 0.589 -0.0047
1708777399.9273 0.595 -0.000 -0.0078 0.595 -0.0078
1708777399.9360 0.600 -0.000 -0.0093 0.600 -0.0093
1708777399.9436 0.606 -0.000 -0.0124 0.606 -0.0124
1708777399.9512 0.612 -0.000 -0.0171 0.612 -0.0171
1708777399.9592 0.617 -0.000 -0.0186 0.617 -0.0186
1708777399.9683 0.623 -0.000 -0.0217 0.623 -0.0217
1708777399.9759 0.628 -0.001 -0.0248 0.628 -0.0248
1708777399.9840 0.634 -0.001 -0.0310 0.634 -0.0310
1708777399.9917 0.640 -0.001 -0.0326 0.640 -0.0326
1708777399.9992 0.645 -0.001 -0.0326 0.645 -0.0326
1708777400.0088 0.650 -0.001 -0.0357 0.650 -0.0357
1708777400.0154 0.656 -0.001 -0.0419 0.656 -0.0419
1708777400.0236 0.662 -0.002 -0.0466 0.662 -0.0466
1708777400.0316 0.668 -0.002 -0.0481 0.668 -0.0481
1708777400.0392 0.673 -0.002 -0.0481 0.673 -0.0481
1708777400.0479 0.678 -0.003 -0.0512 0.678 -0.0512
1708777400.0553 0.684 -0.003 -0.0559 0.684 -0.0559
1708777400.0640 0.690 -0.003 -0.0590 0.690 -0.0590
1708777400.0711 0.695 -0.004 -0.0590 0.696 -0.0590
1708777400.0799 0.701 -0.004 -0.0590 0.701 -0.0590
1708777400.0875 0.707 -0.004 -0.0636 0.707 -0.0636
1708777400.0951 0.712 -0.005 -0.0652 0.713 -0.0652
1708777400.1036 0.718 -0.005 -0.0652 0.718 -0.0652
1708777400.1112 0.723 -0.005 -0.0652 0.723 -0.0652
1708777400.1190 0.729 -0.006 -0.0667 0.729 -0.0667
1708777400.1277 0.734 -0.006 -0.0699 0.735 -0.0699
1708777400.1354 0.740 -0.006 -0.0714 0.740 -0.0714
1708777400.1438 0.746 -0.007 -0.0714 0.746 -0.0714
1708777400.1515 0.751 -0.007 -0.0730 0.752 -0.0730
1708777400.1591 0.757 -0.008 -0.0745 0.757 -0.0745
1708777400.1686 0.762 -0.008 -0.0730 0.763 -0.0730
1708777400.1752 0.768 -0.008 -0.0714 0.768 -0.0714
1708777400.1841 0.774 -0.009 -0.0730 0.774 -0.0730
1708777400.1915 0.778 -0.009 -0.0730 0.779 -0.0730
1708777400.1991 0.784 -0.010 -0.0745 0.784 -0.0745
1708777400.2078 0.790 -0.010 -0.0745 0.790 -0.0745
1708777400.2154 0.796 -0.010 -0.0745 0.796 -0.0745
1708777400.2230 0.801 -0.011 -0.0761 0.801 -0.0761
1708777400.2317 0.806 -0.011 -0.0745 0.807 -0.0745
1708777400.2390 0.812 -0.012 -0.0730 0.812 -0.0730
1708777400.2478 0.817 -0.012 -0.0730 0.818 -0.0730
1708777400.2558 0.823 -0.012 -0.0745 0.823 -0.0745
1708777400.2634 0.828 -0.013 -0.0745 0.829 -0.0745
1708777400.2717 0.834 -0.013 -0.0730 0.835 -0.0730
1708777400.2791 0.840 -0.014 -0.0730 0.840 -0.0730
1708777400.2878 0.845 -0.014 -0.0745 0.846 -0.0745
1708777400.2955 0.850 -0.015 -0.0761 0.851 -0.0761
1708777400.3031 0.856 -0.015 -0.0745 0.857 -0.0745
1708777400.3118 0.862 -0.015 -0.0745 0.863 -0.0745
1708777400.3190 0.868 -0.016 -0.0761 0.868 -0.0761
1708777400.3275 0.873 -0.016 -0.0761 0.874 -0.0761
1708777400.3351 0.878 -0.017 -0.0745 0.879 -0.0745
1708777400.3438 0.884 -0.017 -0.0745 0.885 -0.0745
1708777400.3512 0.890 -0.018 -0.0745 0.891 -0.0745
1708777400.3590 0.896 -0.018 -0.0761 0.897 -0.0761
1708777400.3693 0.901 -0.018 -0.0776 0.902 -0.0776
1708777400.3752 0.906 -0.019 -0.0776 0.907 -0.0776
1708777400.3839 0.912 -0.019 -0.0761 0.913 -0.0761
1708777400.3920 0.917 -0.020 -0.0761 0.918 -0.0761
1708777400.3996 0.923 -0.020 -0.0761 0.924 -0.0761
1708777400.4079 0.929 -0.020 -0.0776 0.929 -0.0776
1708777400.4168 0.934 -0.021 -0.0792 0.935 -0.0792
1708777400.4235 0.940 -0.021 -0.0776 0.940 -0.0776
1708777400.4310 0.945 -0.022 -0.0776 0.946 -0.0776
1708777400.4398 0.950 -0.022 -0.0776 0.951 -0.0776
1708777400.4474 0.955 -0.023 -0.0792 0.956 -0.0792
1708777400.4560 0.961 -0.023 -0.0807 0.962 -0.0807
1708777400.4635 0.968 -0.024 -0.0792 0.968 -0.0792
1708777400.4718 0.973 -0.024 -0.0792 0.974 -0.0792
1708777400.4794 0.978 -0.024 -0.0807 0.979 -0.0807
1708777400.4870 0.983 -0.025 -0.0807 0.984 -0.0807
1708777400.4960 0.989 -0.025 -0.0807 0.990 -0.0807
1708777400.5033 0.995 -0.026 -0.0823 0.996 -0.0823
1708777400.5120 1.000 -0.026 -0.0807 1.001 -0.0807
1708777400.5196 1.005 -0.027 -0.0807 1.006 -0.0807
1708777400.5272 1.011 -0.027 -0.0807 1.012 -0.0807
1708777400.5360 1.017 -0.028 -0.0807 1.018 -0.0807
1708777400.5436 1.022 -0.028 -0.0823 1.023 -0.0823
1708777400.5520 1.028 -0.028 -0.0823 1.029 -0.0823
1708777400.5597 1.033 -0.029 -0.0823 1.034 -0.0823
1708777400.5680 1.039 -0.029 -0.0838 1.040 -0.0838
1708777400.5756 1.045 -0.030 -0.0838 1.046 -0.0838
1708777400.5832 1.051 -0.030 -0.0838 1.052 -0.0838
1708777400.5910 1.056 -0.031 -0.0838 1.057 -0.0838
1708777400.5995 1.061 -0.031 -0.0838 1.062 -0.0838
1708777400.6072 1.067 -0.032 -0.0807 1.068 -0.0807
1708777400.6159 1.073 -0.032 -0.0807 1.074 -0.0807
1708777400.6230 1.078 -0.033 -0.0838 1.080 -0.0838
1708777400.6317 1.084 -0.033 -0.0854 1.085 -0.0854
1708777400.6391 1.089 -0.034 -0.0823 1.090 -0.0823
1708777400.6473 1.095 -0.034 -0.0792 1.096 -0.0792
1708777400.6559 1.101 -0.034 -0.0792 1.102 -0.0792
1708777400.6635 1.106 -0.035 -0.0823 1.108 -0.0823
1708777400.6731 1.112 -0.035 -0.0823 1.113 -0.0823
1708777400.6797 1.117 -0.036 -0.0807 1.118 -0.0807
1708777400.6871 1.123 -0.036 -0.0807 1.124 -0.0807
1708777400.6958 1.128 -0.037 -0.0807 1.129 -0.0807
1708777400.7034 1.133 -0.037 -0.0792 1.134 -0.0792
1708777400.7110 1.139 -0.038 -0.0776 1.140 -0.0776
1708777400.7193 1.145 -0.038 -0.0776 1.146 -0.0776
1708777400.7279 1.150 -0.038 -0.0761 1.151 -0.0761
1708777400.7355 1.155 -0.039 -0.0745 1.157 -0.0745
1708777400.7431 1.161 -0.039 -0.0730 1.162 -0.0730
1708777400.7518 1.167 -0.040 -0.0730 1.168 -0.0730
1708777400.7594 1.172 -0.040 -0.0730 1.174 -0.0730
1708777400.7680 1.178 -0.040 -0.0714 1.179 -0.0714
1708777400.7757 1.183 -0.041 -0.0699 1.185 -0.0699
1708777400.7837 1.189 -0.041 -0.0699 1.191 -0.0699
1708777400.7912 1.195 -0.042 -0.0652 1.196 -0.0652
1708777400.8000 1.200 -0.042 -0.0621 1.201 -0.0621
1708777400.8097 1.205 -0.042 -0.0652 1.207 -0.0652
1708777400.8151 1.211 -0.043 -0.0636 1.213 -0.0636
1708777400.8232 1.217 -0.043 -0.0605 1.219 -0.0605
1708777400.8319 1.221 -0.043 -0.0574 1.223 -0.0574
1708777400.8396 1.226 -0.044 -0.0590 1.228 -0.0590
1708777400.8472 1.233 -0.044 -0.0590 1.234 -0.0590
1708777400.8560 1.239 -0.044 -0.0574 1.240 -0.0574
1708777400.8633 1.244 -0.045 -0.0512 1.246 -0.0512
1708777400.8716 1.249 -0.045 -0.0512 1.251 -0.0512
1708777400.8792 1.255 -0.045 -0.0543 1.257 -0.0543
1708777400.8879 1.261 -0.045 -0.0543 1.262 -0.0543
1708777400.8955 1.266 -0.046 -0.0497 1.268 -0.0497
1708777400.9031 1.272 -0.046 -0.0466 1.274 -0.0466
1708777400.9112 1.277 -0.046 -0.0481 1.279 -0.0481
1708777400.9200 1.282 -0.047 -0.0497 1.284 -0.0497
1708777400.9270 1.288 -0.047 -0.0481 1.290 -0.0481
1708777400.9356 1.294 -0.047 -0.0450 1.296 -0.0450
1708777400.9433 1.299 -0.047 -0.0419 1.301 -0.0419
1708777400.9520 1.304 -0.048 -0.0419 1.306 -0.0419
1708777400.9594 1.310 -0.048 -0.0419 1.312 -0.0419
1708777400.9677 1.316 -0.048 -0.0388 1.318 -0.0388
1708777400.9753 1.321 -0.048 -0.0373 1.323 -0.0373
1708777400.9840 1.327 -0.048 -0.0373 1.328 -0.0373
1708777400.9917 1.333 -0.049 -0.0357 1.334 -0.0357
1708777400.9992 1.338 -0.049 -0.0326 1.340 -0.0326
1708777401.0078 1.343 -0.049 -0.0310 1.345 -0.0310
1708777401.0155 1.348 -0.049 -0.0310 1.350 -0.0310
1708777401.0232 1.354 -0.049 -0.0310 1.356 -0.0310
1708777401.0312 1.360 -0.050 -0.0310 1.362 -0.0310
1708777401.0400 1.366 -0.050 -0.0279 1.368 -0.0279
1708777401.0475 1.371 -0.050 -0.0248 1.373 -0.0248
1708777401.0555 1.377 -0.050 -0.0248 1.379 -0.0248
1708777401.0631 1.383 -0.050 -0.0264 1.385 -0.0264
1708777401.0714 1.388 -0.050 -0.0264 1.390 -0.0264
1708777401.0999 1.405 -0.051 -0.0171 1.407 -0.0171
1708777401.1032 1.411 -0.051 -0.0155 1.413 -0.0155
1708777401.1111 1.416 -0.051 -0.0109 1.418 -0.0109
1708777401.1200 1.419 -0.051 -0.0109 1.421 -0.0109
1708777401.1276 1.422 -0.051 -0.0140 1.423 -0.0140
1708777401.1351 1.426 -0.051 -0.0186 1.428 -0.0186
1708777401.1431 1.433 -0.051 -0.0202 1.434 -0.0202
1708777401.1518 1.439 -0.051 -0.0155 1.441 -0.0155
1708777401.1671 1.443 -0.051 -0.0140 1.445 -0.0140
1708777401.1700 1.449 -0.051 -0.0155 1.450 -0.0155
1708777401.1755 1.453 -0.051 -0.0155 1.455 -0.0155
1708777401.1833 1.456 -0.051 -0.0155 1.458 -0.0155
1708777401.1918 1.459 -0.051 -0.0155 1.461 -0.0155
1708777401.1995 1.465 -0.052 -0.0124 1.467 -0.0124
1708777401.2072 1.471 -0.052 -0.0093 1.473 -0.0093
1708777401.2160 1.476 -0.052 -0.0093 1.478 -0.0093
1708777401.2240 1.481 -0.052 -0.0047 1.483 -0.0047
1708777401.2317 1.486 -0.052 -0.0031 1.488 -0.0031
1708777401.2394 1.492 -0.052 -0.0016 1.494 -0.0016
1708777401.2480 1.497 -0.052 -0.0000 1.499 -0.0000
1708777401.2558 1.502 -0.052 0.0047 1.503 0.0047
1708777401.2635 1.506 -0.052 0.0047 1.508 0.0047
1708777401.2715 1.512 -0.052 0.0062 1.514 0.0062
1708777401.2796 1.517 -0.052 0.0078 1.519 0.0078
1708777401.2878 1.523 -0.052 0.0078 1.524 0.0078
1708777401.2955 1.529 -0.052 0.0109 1.530 0.0109
1708777401.3032 1.534 -0.051 0.0109 1.536 0.0109
1708777401.3120 1.539 -0.051 0.0109 1.541 0.0109
1708777401.3192 1.544 -0.051 0.0124 1.546 0.0124
1708777401.3275 1.551 -0.051 0.0140 1.552 0.0140
1708777401.3353 1.556 -0.051 0.0155 1.558 0.0155
1708777401.3440 1.561 -0.051 0.0140 1.563 0.0140
1708777401.3518 1.567 -0.051 0.0124 1.569 0.0124
1708777401.3593 1.573 -0.051 0.0109 1.575 0.0109
1708777401.3686 1.579 -0.051 0.0140 1.581 0.0140
1708777401.3752 1.584 -0.051 0.0155 1.586 0.0155
1708777401.3840 1.590 -0.051 0.0155 1.592 0.0155
1708777401.3916 1.595 -0.051 0.0171 1.597 0.0171
1708777401.3993 1.601 -0.051 0.0171 1.603 0.0171
1708777401.4074 1.607 -0.050 0.0155 1.608 0.0155
1708777401.4150 1.612 -0.050 0.0171 1.614 0.0171
1708777401.4238 1.617 -0.050 0.0171 1.619 0.0171
1708777401.4314 1.623 -0.050 0.0155 1.625 0.0155
1708777401.4390 1.630 -0.050 0.0155 1.631 0.0155
1708777401.4487 1.635 -0.050 0.0171 1.637 0.0171
1708777401.4556 1.640 -0.050 0.0186 1.642 0.0186
1708777401.4632 1.646 -0.050 0.0202 1.648 0.0202
1708777401.4715 1.651 -0.050 0.0186 1.653 0.0186
1708777401.4795 1.657 -0.050 0.0171 1.658 0.0171
1708777401.4871 1.662 -0.050 0.0171 1.664 0.0171
1708777401.4957 1.668 -0.049 0.0186 1.670 0.0186
1708777401.5035 1.674 -0.049 0.0186 1.676 0.0186
1708777401.5111 1.679 -0.049 0.0186 1.681 0.0186
1708777401.5199 1.684 -0.049 0.0171 1.686 0.0171
1708777401.5276 1.690 -0.049 0.0186 1.691 0.0186
1708777401.5351 1.696 -0.049 0.0186 1.697 0.0186
1708777401.5437 1.701 -0.049 0.0171 1.702 0.0171
1708777401.5518 1.706 -0.049 0.0171 1.707 0.0171
1708777401.5594 1.711 -0.049 0.0171 1.713 0.0171
1708777401.5677 1.718 -0.049 0.0140 1.720 0.0140
1708777401.5754 1.724 -0.048 0.0155 1.725 0.0155
1708777401.5839 1.728 -0.048 0.0186 1.730 0.0186
1708777401.5919 1.734 -0.048 0.0186 1.735 0.0186
1708777401.5996 1.740 -0.048 0.0186 1.742 0.0186
1708777401.6072 1.746 -0.048 0.0155 1.748 0.0155
1708777401.6159 1.752 -0.048 0.0171 1.753 0.0171
1708777401.6232 1.756 -0.048 0.0171 1.758 0.0171
1708777401.6317 1.762 -0.048 0.0186 1.763 0.0186
1708777401.6393 1.768 -0.048 0.0186 1.770 0.0186
1708777401.6480 1.774 -0.048 0.0186 1.776 0.0186
1708777401.6556 1.779 -0.047 0.0186 1.781 0.0186
1708777401.6633 1.785 -0.047 0.0171 1.787 0.0171
1708777401.6716 1.791 -0.047 0.0171 1.793 0.0171
1708777401.6792 1.796 -0.047 0.0171 1.798 0.0171
1708777401.6880 1.802 -0.047 0.0186 1.803 0.0186
1708777401.6957 1.807 -0.047 0.0186 1.809 0.0186
1708777401.7033 1.813 -0.047 0.0171 1.815 0.0171
1708777401.7121 1.819 -0.047 0.0171 1.821 0.0171
1708777401.7196 1.824 -0.047 0.0186 1.826 0.0186
1708777401.7273 1.829 -0.047 0.0202 1.831 0.0202
1708777401.7360 1.835 -0.046 0.0186 1.837 0.0186
1708777401.7437 1.841 -0.046 0.0171 1.842 0.0171
1708777401.7513 1.846 -0.046 0.0171 1.848 0.0171
1708777401.7601 1.852 -0.046 0.0186 1.854 0.0186
1708777401.7682 1.857 -0.046 0.0186 1.859 0.0186
1708777401.7758 1.863 -0.046 0.0186 1.865 0.0186
1708777401.7838 1.869 -0.046 0.0171 1.871 0.0171
1708777401.7915 1.874 -0.046 0.0171 1.876 0.0171
1708777401.7991 1.879 -0.046 0.0155 1.881 0.0155
1708777401.8087 1.885 -0.046 0.0155 1.887 0.0155
1708777401.8153 1.891 -0.045 0.0171 1.893 0.0171
1708777401.8235 1.897 -0.045 0.0124 1.898 0.0124
1708777401.8312 1.901 -0.045 0.0124 1.903 0.0124
1708777401.8399 1.906 -0.045 0.0140 1.908 0.0140
1708777401.8475 1.912 -0.045 0.0155 1.914 0.0155
1708777401.8553 1.919 -0.045 0.0140 1.921 0.0140
1708777401.8635 1.924 -0.045 0.0140 1.926 0.0140
1708777401.8718 1.929 -0.045 0.0109 1.931 0.0109
1708777401.8795 1.935 -0.045 0.0109 1.936 0.0109
1708777401.8872 1.941 -0.045 0.0124 1.943 0.0124
1708777401.8958 1.946 -0.045 0.0124 1.948 0.0124
1708777401.9032 1.952 -0.045 0.0109 1.954 0.0109
1708777401.9116 1.958 -0.045 0.0093 1.960 0.0093
1708777401.9199 1.963 -0.045 0.0093 1.965 0.0093
1708777401.9276 1.969 -0.045 0.0124 1.970 0.0124
1708777401.9353 1.974 -0.044 0.0109 1.976 0.0109
1708777401.9438 1.980 -0.044 0.0062 1.981 0.0062
1708777401.9510 1.985 -0.044 0.0078 1.987 0.0078
1708777401.9598 1.991 -0.044 0.0109 1.993 0.0109
1708777401.9683 1.996 -0.044 0.0124 1.998 0.0124
1708777401.9760 2.002 -0.044 0.0109 2.004 0.0109
1708777401.9837 2.008 -0.044 0.0093 2.010 0.0093
1708777401.9912 2.014 -0.044 0.0093 2.016 0.0093
1708777402.0000 2.019 -0.044 0.0109 2.020 0.0109
1708777402.0078 2.024 -0.044 0.0124 2.026 0.0124
1708777402.0154 2.029 -0.044 0.0124 2.031 0.0124
1708777402.0237 2.036 -0.044 0.0109 2.037 0.0109
1708777402.0314 2.041 -0.044 0.0124 2.043 0.0124
1708777402.0399 2.046 -0.044 0.0140 2.048 0.0140
1708777402.0473 2.052 -0.044 0.0155 2.053 0.0155
1708777402.0561 2.058 -0.044 0.0140 2.060 0.0140
1708777402.0637 2.063 -0.043 0.0124 2.065 0.0124
1708777402.0720 2.069 -0.043 0.0140 2.071 0.0140
1708777402.0794 2.074 -0.043 0.0155 2.076 0.0155
1708777402.0870 2.080 -0.043 0.0155 2.082 0.0155
1708777402.0958 2.085 -0.043 0.0109 2.087 0.0109
