% Encoder logfile
% 1 	Time (sec)
% 2,3 	enc left, right
% 4,5 	encoder change left, right
1708778734.9256 0 0 0 0
1708778734.9332 0 0 0 0
1708778734.9404 0 0 0 0
1708778734.9490 0 0 0 0
1708778734.9570 0 0 0 0
1708778734.9650 0 0 0 0
1708778734.9725 0 0 0 0
1708778734.9811 0 0 0 0
1708778734.9889 0 0 0 0
1708778734.9964 0 0 0 0
1708778735.0051 0 0 0 0
1708778735.0124 0 0 0 0
1708778735.0211 0 0 0 0
1708778735.0285 0 0 0 0
1708778735.0365 0 0 0 0
1708778735.0448 0 0 0 0
1708778735.0528 0 0 0 0
1708778735.0609 7 7 7 7
1708778735.0686 18 17 11 10
1708778735.0767 26 22 8 5
1708778735.0847 29 26 3 4
1708778735.0971 36 35 7 9
1708778735.1011 46 46 10 11
1708778735.1094 58 60 12 14
1708778735.1177 68 69 10 9
1708778735.1252 79 78 11 9
1708778735.1330 92 92 13 14
1708778735.1409 107 107 15 15
1708778735.1494 122 120 15 13
1708778735.1586 134 131 12 11
1708778735.1649 148 144 14 13
1708778735.1735 162 157 14 13
1708778735.1811 175 170 13 13
1708778735.1896 190 184 15 14
1708778735.1977 205 198 15 14
1708778735.2050 220 211 15 13
1708778735.2126 234 225 14 14
1708778735.2206 248 239 14 14
1708778735.2292 264 254 16 15
1708778735.2369 279 270 15 16
1708778735.2456 294 285 15 15
1708778735.2529 309 301 15 16
1708778735.2612 326 319 17 18
1708778735.2694 341 336 15 17
1708778735.2766 356 352 15 16
1708778735.2850 372 368 16 16
1708778735.2934 388 385 16 17
1708778735.3007 405 402 17 17
1708778735.3095 420 417 15 15
1708778735.3179 434 431 14 14
1708778735.3245 450 447 16 16
1708778735.3329 466 463 16 16
1708778735.3411 481 478 15 15
1708778735.3489 498 494 17 16
1708778735.3599 513 510 15 16
1708778735.3658 527 525 14 15
1708778735.3734 542 541 15 16
1708778735.3813 556 556 14 15
1708778735.3887 568 569 12 13
1708778735.3973 583 583 15 14
1708778735.4053 600 598 17 15
1708778735.4125 615 617 15 19
1708778735.4208 628 632 13 15
1708778735.4296 640 645 12 13
1708778735.4375 655 659 15 14
1708778735.4448 672 675 17 16
1708778735.4529 686 691 14 16
1708778735.4615 697 705 11 14
1708778735.4687 710 718 13 13
1708778735.4766 726 733 16 15
1708778735.4854 741 749 15 16
1708778735.4930 754 764 13 15
1708778735.5008 768 779 14 15
1708778735.5091 784 793 16 14
1708778735.5175 797 807 13 14
1708778735.5260 809 820 12 13
1708778735.5331 824 836 15 16
1708778735.5409 840 854 16 18
1708778735.5491 854 868 14 14
1708778735.5574 867 883 13 15
1708778735.5647 880 897 13 14
1708778735.5727 895 914 15 17
1708778735.5816 909 929 14 15
1708778735.5888 922 943 13 14
1708778735.5967 936 960 14 17
1708778735.6050 951 976 15 16
1708778735.6133 965 992 14 16
1708778735.6205 979 1008 14 16
1708778735.6287 994 1025 15 17
1708778735.6370 1007 1040 13 15
1708778735.6449 1020 1054 13 14
1708778735.6532 1035 1070 15 16
1708778735.6614 1050 1087 15 17
1708778735.6693 1064 1103 14 16
1708778735.6775 1076 1118 12 15
1708778735.6848 1090 1133 14 15
1708778735.6939 1105 1149 15 16
1708778735.7012 1119 1166 14 17
1708778735.7094 1132 1184 13 18
1708778735.7172 1145 1198 13 14
1708778735.7255 1160 1212 15 14
1708778735.7327 1175 1229 15 17
1708778735.7406 1187 1246 12 17
1708778735.7490 1199 1262 12 16
1708778735.7568 1214 1277 15 15
1708778735.7647 1229 1294 15 17
1708778735.7729 1243 1310 14 16
1708778735.7809 1255 1325 12 15
1708778735.7888 1267 1342 12 17
1708778735.7967 1282 1358 15 16
1708778735.8056 1297 1374 15 16
1708778735.8134 1311 1389 14 15
1708778735.8207 1324 1405 13 16
1708778735.8294 1337 1420 13 15
1708778735.8366 1350 1434 13 14
1708778735.8452 1365 1452 15 18
1708778735.8529 1379 1468 14 16
1708778735.8616 1392 1484 13 16
1708778735.8698 1406 1498 14 14
1708778735.8772 1422 1515 16 17
1708778735.8851 1436 1533 14 18
1708778735.8935 1449 1549 13 16
1708778735.9009 1461 1566 12 17
1708778735.9095 1476 1581 15 15
1708778735.9168 1492 1594 16 13
1708778735.9253 1506 1610 14 16
1708778735.9339 1519 1626 13 16
1708778735.9411 1532 1642 13 16
1708778735.9486 1548 1657 16 15
1708778735.9591 1563 1672 15 15
1708778735.9651 1576 1685 13 13
1708778735.9733 1591 1702 15 17
1708778735.9814 1604 1717 13 15
1708778735.9885 1619 1732 15 15
1708778735.9967 1634 1746 15 14
1708778736.0046 1647 1759 13 13
1708778736.0129 1660 1773 13 14
1708778736.0213 1675 1790 15 17
1708778736.0289 1691 1806 16 16
1708778736.0366 1706 1821 15 15
1708778736.0446 1719 1835 13 14
1708778736.0533 1732 1848 13 13
1708778736.0614 1747 1863 15 15
1708778736.0695 1763 1880 16 17
1708778736.0771 1778 1894 15 14
1708778736.0849 1791 1907 13 13
1708778736.0931 1805 1922 14 15
1708778736.1008 1820 1938 15 16
1708778736.1089 1837 1954 17 16
1708778736.1169 1851 1968 14 14
1708778736.1247 1864 1984 13 16
1708778736.1335 1879 2000 15 16
1708778736.1407 1895 2014 16 14
1708778736.1495 1912 2028 17 14
1708778736.1575 1926 2043 14 15
1708778736.1647 1940 2060 14 17
1708778736.1734 1955 2074 15 14
1708778736.1822 1969 2086 14 12
1708778736.1893 1985 2100 16 14
1708778736.1971 2002 2116 17 16
1708778736.2055 2016 2130 14 14
1708778736.2127 2030 2144 14 14
1708778736.2214 2046 2159 16 15
1708778736.2286 2061 2173 15 14
1708778736.2375 2077 2187 16 14
1708778736.2450 2091 2201 14 14
1708778736.2531 2107 2216 16 15
1708778736.2613 2123 2230 16 14
1708778736.2689 2138 2243 15 13
1708778736.2771 2152 2257 14 14
1708778736.2850 2168 2273 16 16
1708778736.2935 2184 2288 16 15
1708778736.3005 2198 2299 14 11
1708778736.3087 2212 2313 14 14
1708778736.3174 2228 2327 16 14
1708778736.3246 2244 2342 16 15
1708778736.3334 2259 2355 15 13
1708778736.3408 2273 2368 14 13
1708778736.3490 2288 2382 15 14
1708778736.3571 2305 2397 17 15
1708778736.3649 2322 2412 17 15
1708778736.3730 2337 2426 15 14
1708778736.3817 2350 2439 13 13
1708778736.3895 2367 2454 17 15
1708778736.3966 2386 2469 19 15
1708778736.4049 2401 2483 15 14
1708778736.4125 2413 2496 12 13
1708778736.4207 2430 2509 17 13
1708778736.4287 2448 2524 18 15
1708778736.4370 2463 2539 15 15
1708778736.4451 2476 2552 13 13
1708778736.4533 2491 2565 15 13
1708778736.4610 2507 2581 16 16
1708778736.4691 2522 2597 15 16
1708778736.4770 2537 2611 15 14
1708778736.4854 2553 2624 16 13
1708778736.4925 2569 2637 16 13
1708778736.5007 2584 2652 15 15
1708778736.5094 2597 2666 13 14
1708778736.5173 2612 2679 15 13
1708778736.5255 2629 2693 17 14
1708778736.5328 2645 2708 16 15
1708778736.5410 2661 2723 16 15
1708778736.5489 2674 2736 13 13
1708778736.5566 2689 2750 15 14
1708778736.5645 2705 2765 16 15
1708778736.5727 2721 2780 16 15
1708778736.5821 2736 2794 15 14
1708778736.5892 2751 2808 15 14
1708778736.5974 2769 2824 18 16
1708778736.6049 2785 2839 16 15
1708778736.6131 2799 2853 14 14
1708778736.6213 2811 2867 12 14
1708778736.6290 2826 2881 15 14
1708778736.6367 2843 2896 17 15
1708778736.6451 2860 2911 17 15
1708778736.6527 2874 2926 14 15
1708778736.6609 2887 2940 13 14
1708778736.6691 2901 2954 14 14
1708778736.6768 2918 2970 17 16
1708778736.6849 2935 2986 17 16
1708778736.6932 2949 2999 14 13
1708778736.7007 2961 3012 12 13
1708778736.7089 2975 3029 14 17
1708778736.7171 2992 3045 17 16
1708778736.7249 3008 3059 16 14
1708778736.7326 3023 3073 15 14
1708778736.7406 3036 3088 13 15
1708778736.7494 3050 3101 14 13
1708778736.7565 3065 3115 15 14
1708778736.7653 3081 3131 16 16
1708778736.7730 3094 3145 13 14
1708778736.7818 3108 3161 14 16
1708778736.7887 3124 3175 16 14
1708778736.7975 3140 3190 16 15
1708778736.8046 3153 3204 13 14
1708778736.8129 3166 3219 13 15
1708778736.8205 3181 3234 15 15
1708778736.8287 3197 3249 16 15
1708778736.8375 3211 3265 14 16
1708778736.8453 3225 3281 14 16
1708778736.8527 3240 3297 15 16
1708778736.8616 3255 3310 15 13
1708778736.8694 3269 3323 14 13
1708778736.8775 3284 3339 15 16
1708778736.8854 3300 3356 16 17
1708778736.8933 3314 3373 14 17
1708778736.9005 3328 3388 14 15
1708778736.9088 3342 3401 14 13
1708778736.9166 3356 3417 14 16
1708778736.9248 3370 3433 14 16
1708778736.9333 3385 3448 15 15
1708778736.9412 3400 3463 15 15
1708778736.9486 3414 3480 14 17
1708778736.9570 3428 3495 14 15
1708778736.9652 3441 3509 13 14
1708778736.9736 3457 3525 16 16
1708778736.9819 3473 3543 16 18
1708778736.9891 3488 3559 15 16
1708778736.9974 3500 3573 12 14
1708778737.0047 3511 3586 11 13
1708778737.0135 3525 3601 14 15
1708778737.0207 3540 3618 15 17
1708778737.0291 3556 3636 16 18
1708778737.0366 3569 3651 13 15
1708778737.0457 3581 3665 12 14
1708778737.0530 3594 3680 13 15
1708778737.0606 3610 3697 16 17
1708778737.0689 3625 3713 15 16
1708778737.0765 3636 3727 11 14
1708778737.0853 3649 3743 13 16
1708778737.0927 3664 3760 15 17
1708778737.1008 3680 3777 16 17
1708778737.1087 3693 3791 13 14
1708778737.1171 3705 3806 12 15
1708778737.1255 3718 3824 13 18
1708778737.1330 3733 3842 15 18
1708778737.1415 3748 3857 15 15
1708778737.1487 3761 3871 13 14
1708778737.1567 3773 3887 12 16
1708778737.1651 3785 3904 12 17
1708778737.1735 3799 3920 14 16
1708778737.1820 3814 3937 15 17
1708778737.1895 3829 3954 15 17
1708778737.1966 3842 3970 13 16
1708778737.2055 3854 3984 12 14
1708778737.2129 3866 3998 12 14
1708778737.2212 3881 4014 15 16
1708778737.2290 3897 4032 16 18
1708778737.2367 3910 4049 13 17
1708778737.2452 3921 4063 11 14
1708778737.2531 3934 4078 13 15
1708778737.2615 3950 4095 16 17
1708778737.2687 3965 4113 15 18
1708778737.2767 3977 4129 12 16
1708778737.2856 3988 4143 11 14
1708778737.2931 4000 4158 12 15
1708778737.3010 4015 4177 15 19
1708778737.3094 4029 4194 14 17
1708778737.3167 4041 4209 12 15
1708778737.3248 4053 4225 12 16
1708778737.3328 4066 4243 13 18
1708778737.3410 4081 4261 15 18
1708778737.3489 4093 4276 12 15
1708778737.3572 4105 4293 12 17
1708778737.3655 4118 4311 13 18
1708778737.3732 4133 4329 15 18
1708778737.3822 4145 4345 12 16
1708778737.3894 4156 4361 11 16
1708778737.3973 4168 4380 12 19
1708778737.4054 4181 4398 13 18
1708778737.4127 4193 4414 12 16
1708778737.4215 4205 4430 12 16
1708778737.4287 4216 4448 11 18
1708778737.4367 4229 4466 13 18
1708778737.4456 4242 4484 13 18
1708778737.4528 4254 4501 12 17
1708778737.4609 4266 4519 12 18
1708778737.4687 4277 4535 11 16
1708778737.4770 4289 4553 12 18
1708778737.4850 4302 4572 13 19
1708778737.4929 4315 4590 13 18
1708778737.5012 4326 4606 11 16
1708778737.5094 4337 4624 11 18
1708778737.5172 4349 4642 12 18
1708778737.5255 4363 4659 14 17
1708778737.5326 4375 4677 12 18
1708778737.5415 4386 4695 11 18
1708778737.5495 4396 4711 10 16
1708778737.5566 4410 4730 14 19
1708778737.5655 4424 4748 14 18
1708778737.5728 4436 4763 12 15
1708778737.5818 4446 4780 10 17
1708778737.5886 4458 4799 12 19
1708778737.5967 4471 4817 13 18
1708778737.6050 4482 4831 11 14
1708778737.6129 4494 4847 12 16
1708778737.6213 4507 4866 13 19
1708778737.6285 4521 4886 14 20
1708778737.6370 4533 4903 12 17
1708778737.6479 4546 4918 13 15
1708778737.6529 4558 4935 12 17
1708778737.6611 4571 4953 13 18
1708778737.6695 4581 4968 10 15
1708778737.6771 4593 4984 12 16
1708778737.6846 4606 5002 13 18
1708778737.6929 4618 5020 12 18
1708778737.7015 4629 5035 11 15
1708778737.7096 4641 5052 12 17
1708778737.7168 4654 5071 13 19
1708778737.7246 4665 5088 11 17
1708778737.7332 4676 5103 11 15
1708778737.7406 4688 5119 12 16
1708778737.7485 4701 5136 13 17
1708778737.7565 4712 5153 11 17
1708778737.7649 4724 5170 12 17
1708778737.7734 4738 5188 14 18
1708778737.7819 4752 5206 14 18
1708778737.7894 4765 5223 13 17
1708778737.7970 4777 5240 12 17
1708778737.8055 4788 5256 11 16
1708778737.8134 4801 5272 13 16
1708778737.8208 4815 5290 14 18
1708778737.8288 4827 5308 12 18
1708778737.8375 4838 5325 11 17
1708778737.8450 4851 5340 13 15
1708778737.8533 4865 5357 14 17
1708778737.8606 4878 5374 13 17
1708778737.8687 4891 5390 13 16
1708778737.8768 4904 5405 13 15
1708778737.8845 4917 5422 13 17
1708778737.8933 4931 5440 14 18
1708778737.9067 4946 5457 15 17
1708778737.9095 4960 5472 14 15
1708778737.9167 4974 5488 14 16
1708778737.9248 4980 5499 6 11
1708778737.9329 4989 5511 9 12
1708778737.9412 5003 5527 14 16
1708778737.9495 5020 5543 17 16
1708778737.9567 5035 5558 15 15
1708778737.9649 5047 5572 12 14
1708778737.9730 5058 5584 11 12
1708778737.9819 5071 5599 13 15
1708778737.9892 5087 5615 16 16
1708778737.9971 5102 5630 15 15
1708778738.0051 5115 5643 13 13
1708778738.0134 5127 5655 12 12
1708778738.0206 5140 5670 13 15
1708778738.0288 5155 5686 15 16
1708778738.0369 5169 5700 14 14
1708778738.0454 5182 5714 13 14
1708778738.0533 5195 5728 13 14
1708778738.0608 5208 5742 13 14
1708778738.0691 5220 5756 12 14
1708778738.0767 5235 5771 15 15
1708778738.0851 5250 5786 15 15
1708778738.0933 5264 5800 14 14
1708778738.1008 5278 5815 14 15
1708778738.1093 5294 5830 16 15
1708778738.1174 5309 5844 15 14
1708778738.1249 5324 5860 15 16
1708778738.1335 5339 5877 15 17
1708778738.1411 5354 5892 15 15
1708778738.1489 5368 5907 14 15
1708778738.1574 5382 5922 14 15
1708778738.1655 5397 5938 15 16
1708778738.1739 5412 5955 15 17
1708778738.1814 5427 5970 15 15
1708778738.1888 5441 5984 14 14
1708778738.1974 5454 6000 13 16
1708778738.2049 5467 6016 13 16
1708778738.2133 5483 6033 16 17
1708778738.2206 5497 6048 14 15
1708778738.2295 5511 6063 14 15
1708778738.2373 5524 6077 13 14
1708778738.2446 5539 6094 15 17
1708778738.2535 5554 6111 15 17
1708778738.2616 5567 6125 13 14
1708778738.2718 5581 6140 14 15
1708778738.2767 5596 6157 15 17
1708778738.2846 5610 6174 14 17
1708778738.2957 5619 6185 9 11
1708778738.3007 5632 6197 13 12
1708778738.3087 5647 6214 15 17
1708778738.3169 5657 6229 10 15
1708778738.3252 5669 6243 12 14
1708778738.3326 5683 6259 14 16
1708778738.3410 5699 6276 16 17
1708778738.3493 5712 6291 13 15
1708778738.3572 5723 6306 11 15
1708778738.3653 5737 6321 14 15
1708778738.3726 5752 6337 15 16
1708778738.3823 5765 6353 13 16
1708778738.3895 5776 6367 11 14
1708778738.3968 5789 6383 13 16
1708778738.4055 5803 6400 14 17
1708778738.4128 5816 6415 13 15
1708778738.4212 5829 6432 13 17
1708778738.4292 5841 6449 12 17
1708778738.4371 5855 6465 14 16
1708778738.4454 5868 6481 13 16
1708778738.4531 5881 6498 13 17
1708778738.4614 5893 6515 12 17
1708778738.4687 5905 6532 12 17
1708778738.4766 5918 6548 13 16
1708778738.4856 5931 6564 13 16
1708778738.4928 5942 6580 11 16
1708778738.5015 5955 6598 13 18
1708778738.5088 5969 6617 14 19
1708778738.5172 5981 6635 12 18
1708778738.5252 5993 6651 12 16
1708778738.5330 6005 6668 12 17
1708778738.5412 6017 6687 12 19
1708778738.5488 6028 6707 11 20
1708778738.5571 6039 6724 11 17
1708778738.5654 6050 6740 11 16
1708778738.5732 6062 6758 12 18
1708778738.5822 6074 6778 12 20
1708778738.5892 6086 6798 12 20
1708778738.5972 6097 6817 11 19
1708778738.6055 6108 6834 11 17
1708778738.6128 6119 6852 11 18
1708778738.6206 6131 6872 12 20
1708778738.6289 6141 6890 10 18
1708778738.6366 6152 6909 11 19
1708778738.6456 6165 6927 13 18
1708778738.6528 6177 6945 12 18
1708778738.6612 6187 6965 10 20
1708778738.6689 6198 6982 11 17
1708778738.6771 6211 6998 13 16
1708778738.6850 6224 7017 13 19
1708778738.6929 6236 7035 12 18
1708778738.7011 6248 7052 12 17
1708778738.7095 6260 7067 12 15
1708778738.7173 6274 7084 14 17
1708778738.7253 6287 7102 13 18
1708778738.7331 6300 7119 13 17
1708778738.7409 6313 7136 13 17
1708778738.7491 6328 7150 15 14
1708778738.7575 6341 7166 13 16
1708778738.7652 6355 7184 14 18
1708778738.7733 6370 7200 15 16
1708778738.7823 6383 7213 13 13
1708778738.7892 6398 7227 15 14
1708778738.7974 6412 7244 14 17
1708778738.8046 6424 7259 12 15
1708778738.8127 6438 7273 14 14
1708778738.8245 6454 7287 16 14
1708778738.8293 6470 7303 16 16
1708778738.8371 6486 7321 16 18
1708778738.8453 6495 7332 9 11
1708778738.8536 6507 7344 12 12
1708778738.8612 6524 7359 17 15
1708778738.8694 6541 7375 17 16
1708778738.8766 6555 7390 14 15
1708778738.8854 6568 7404 13 14
1708778738.8926 6581 7417 13 13
1708778738.9006 6596 7431 15 14
1708778738.9095 6612 7445 16 14
1708778738.9170 6626 7461 14 16
1708778738.9252 6641 7477 15 16
1708778738.9326 6655 7491 14 14
1708778738.9409 6670 7504 15 13
1708778738.9491 6685 7517 15 13
1708778738.9571 6699 7533 14 16
1708778738.9653 6714 7549 15 16
1708778738.9726 6730 7563 16 14
1708778738.9822 6744 7576 14 13
1708778738.9893 6757 7590 13 14
1708778738.9966 6773 7606 16 16
1708778739.0046 6788 7620 15 14
1708778739.0130 6802 7634 14 14
1708778739.0225 6816 7649 14 15
1708778739.0292 6832 7665 16 16
1708778739.0369 6849 7679 17 14
1708778739.0450 6863 7691 14 12
1708778739.0530 6874 7705 11 14
1708778739.0612 6888 7722 14 17
1708778739.0688 6905 7739 17 17
1708778739.0770 6922 7754 17 15
1708778739.0851 6935 7767 13 13
1708778739.0935 6948 7781 13 14
1708778739.1006 6963 7798 15 17
1708778739.1091 6979 7814 16 16
1708778739.1167 6994 7827 15 13
1708778739.1247 7008 7841 14 14
1708778739.1330 7022 7856 14 15
1708778739.1424 7037 7872 15 16
1708778739.1495 7053 7888 16 16
1708778739.1570 7070 7904 17 16
1708778739.1653 7083 7917 13 13
1708778739.1733 7095 7930 12 13
1708778739.1813 7109 7944 14 14
1708778739.1887 7125 7960 16 16
1708778739.1968 7142 7976 17 16
1708778739.2052 7156 7990 14 14
1708778739.2128 7169 8004 13 14
1708778739.2229 7184 8017 15 13
1708778739.2291 7200 8032 16 15
1708778739.2375 7215 8048 15 16
1708778739.2446 7227 8061 12 13
1708778739.2531 7241 8075 14 14
1708778739.2615 7256 8089 15 14
1708778739.2690 7273 8106 17 17
1708778739.2778 7289 8121 16 15
1708778739.2850 7302 8135 13 14
1708778739.2930 7317 8150 15 15
1708778739.3015 7331 8164 14 14
1708778739.3088 7346 8179 15 15
1708778739.3169 7361 8194 15 15
1708778739.3254 7375 8208 14 14
1708778739.3335 7389 8223 14 15
1708778739.3406 7405 8239 16 16
1708778739.3496 7421 8253 16 14
1708778739.3591 7435 8267 14 14
1708778739.3649 7449 8282 14 15
1708778739.3734 7465 8298 16 16
1708778739.3815 7478 8310 13 12
1708778739.3886 7492 8323 14 13
1708778739.3971 7507 8338 15 15
1708778739.4046 7521 8353 14 15
1708778739.4127 7535 8369 14 16
1708778739.4212 7550 8384 15 15
1708778739.4288 7566 8397 16 13
1708778739.4366 7582 8412 16 15
1708778739.4451 7595 8428 13 16
1708778739.4526 7607 8443 12 15
1708778739.4607 7623 8457 16 14
1708778739.4692 7639 8471 16 14
1708778739.4767 7654 8486 15 15
1708778739.4856 7668 8501 14 15
1708778739.4930 7682 8515 14 14
1708778739.5015 7698 8531 16 16
1708778739.5086 7713 8546 15 15
1708778739.5170 7727 8560 14 14
1708778739.5255 7740 8574 13 14
1708778739.5330 7755 8589 15 15
1708778739.5414 7772 8605 17 16
1708778739.5486 7786 8620 14 15
1708778739.5570 7799 8632 13 12
1708778739.5651 7813 8645 14 13
1708778739.5736 7829 8661 16 16
1708778739.5815 7846 8679 17 18
1708778739.5890 7861 8696 15 17
1708778739.5966 7875 8710 14 14
1708778739.6048 7888 8722 13 12
1708778739.6132 7903 8736 15 14
1708778739.6207 7920 8754 17 18
1708778739.6288 7935 8771 15 17
1708778739.6368 7948 8785 13 14
1708778739.6453 7962 8798 14 13
1708778739.6534 7978 8814 16 16
1708778739.6610 7996 8831 18 17
1708778739.6686 8012 8847 16 16
1708778739.6773 8024 8859 12 12
1708778739.6854 8036 8871 12 12
1708778739.6929 8052 8886 16 15
1708778739.7009 8069 8902 17 16
1708778739.7094 8084 8917 15 15
1708778739.7168 8097 8931 13 14
1708778739.7249 8111 8945 14 14
1708778739.7330 8127 8959 16 14
1708778739.7416 8143 8974 16 15
1708778739.7486 8158 8990 15 16
1708778739.7571 8172 9004 14 14
1708778739.7655 8185 9017 13 13
1708778739.7726 8200 9032 15 15
1708778739.7816 8217 9050 17 18
1708778739.7890 8231 9065 14 15
1708778739.7971 8245 9079 14 14
1708778739.8055 8260 9091 15 12
1708778739.8130 8275 9105 15 14
1708778739.8211 8290 9122 15 17
1708778739.8286 8304 9138 14 16
1708778739.8366 8318 9152 14 14
1708778739.8447 8334 9165 16 13
1708778739.8531 8350 9180 16 15
1708778739.8606 8364 9196 14 16
1708778739.8716 8378 9211 14 15
1708778739.8770 8393 9224 15 13
1708778739.8855 8407 9237 14 13
1708778739.8928 8418 9249 11 12
1708778739.9014 8431 9262 13 13
1708778739.9089 8447 9279 16 17
1708778739.9171 8465 9297 18 18
1708778739.9247 8479 9311 14 14
1708778739.9331 8491 9324 12 13
1708778739.9415 8505 9338 14 14
1708778739.9491 8521 9355 16 17
1708778739.9567 8539 9371 18 16
1708778739.9649 8552 9384 13 13
