% Pose without folding and reset (log_20240308_171317.637/log_pose_abs.txt)
% 1 	Time (sec)
% 2,3 	Position x,y (m)
% 4 	heading (rad)
% 5 	Driven distance (m) - signed
% 6 	Turned angle (rad) - signed
1709914397.9820 0.000 0.000 0.0000 0.000 0.0000
1709914397.9895 0.000 0.000 0.0000 0.000 0.0000
1709914397.9984 0.000 0.000 0.0000 0.000 0.0000
1709914398.0065 0.000 0.000 0.0000 0.000 0.0000
1709914398.0130 0.000 0.000 0.0000 0.000 0.0000
1709914398.0215 0.000 0.000 0.0000 0.000 0.0000
1709914398.0290 0.000 0.000 0.0000 0.000 0.0000
1709914398.0376 0.000 0.000 0.0016 0.000 0.0016
1709914398.0458 0.001 0.000 0.0047 0.001 0.0047
1709914398.0532 0.003 0.000 0.0062 0.003 0.0062
1709914398.0613 0.006 0.000 0.0031 0.006 0.0031
1709914398.0691 0.009 0.000 0.0000 0.009 0.0000
1709914398.0770 0.011 0.000 0.0000 0.011 0.0000
1709914398.0857 0.013 0.000 0.0016 0.013 0.0016
1709914398.0936 0.015 0.000 0.0031 0.015 0.0031
1709914398.1020 0.018 0.000 0.0031 0.018 0.0031
1709914398.1094 0.022 0.000 0.0000 0.022 0.0000
1709914398.1171 0.024 0.000 -0.0031 0.024 -0.0031
1709914398.1250 0.027 0.000 -0.0016 0.027 -0.0016
1709914398.1341 0.029 0.000 0.0016 0.029 0.0016
1709914398.1419 0.032 0.000 0.0016 0.032 0.0016
1709914398.1502 0.035 0.000 0.0000 0.035 0.0000
1709914398.1587 0.038 0.000 -0.0016 0.038 -0.0016
1709914398.1665 0.041 0.000 -0.0016 0.041 -0.0016
1709914398.1743 0.044 0.000 0.0000 0.044 0.0000
1709914398.1820 0.047 0.000 0.0016 0.047 0.0016
1709914398.1900 0.050 0.000 0.0016 0.050 0.0016
1709914398.1986 0.053 0.000 0.0016 0.053 0.0016
1709914398.2067 0.056 0.000 0.0000 0.056 0.0000
1709914398.2145 0.059 0.000 -0.0016 0.059 -0.0016
1709914398.2225 0.062 0.000 -0.0016 0.062 -0.0016
1709914398.2302 0.065 0.000 0.0000 0.065 0.0000
1709914398.2380 0.068 0.000 0.0000 0.068 0.0000
1709914398.2456 0.071 0.000 -0.0016 0.071 -0.0016
1709914398.2540 0.074 0.000 -0.0016 0.074 -0.0016
1709914398.2620 0.078 0.000 -0.0016 0.078 -0.0016
1709914398.2698 0.081 0.000 -0.0016 0.081 -0.0016
1709914398.2785 0.084 0.000 -0.0031 0.084 -0.0031
1709914398.2862 0.087 0.000 -0.0031 0.087 -0.0031
1709914398.2939 0.090 0.000 -0.0016 0.090 -0.0016
1709914398.3023 0.093 0.000 0.0000 0.093 0.0000
1709914398.3102 0.096 0.000 0.0000 0.096 0.0000
1709914398.3180 0.100 0.000 -0.0016 0.100 -0.0016
1709914398.3282 0.103 -0.000 -0.0031 0.103 -0.0031
1709914398.3342 0.106 -0.000 -0.0016 0.106 -0.0016
1709914398.3421 0.109 -0.000 -0.0016 0.109 -0.0016
1709914398.3510 0.112 -0.000 0.0000 0.112 0.0000
1709914398.3582 0.115 -0.000 0.0000 0.115 0.0000
1709914398.3662 0.119 -0.000 -0.0016 0.119 -0.0016
1709914398.3753 0.122 -0.000 0.0000 0.122 0.0000
1709914398.3825 0.125 -0.000 0.0016 0.125 0.0016
1709914398.3904 0.128 -0.000 0.0000 0.128 0.0000
1709914398.3985 0.131 -0.000 -0.0016 0.131 -0.0016
1709914398.4065 0.134 -0.000 -0.0016 0.134 -0.0016
1709914398.4143 0.137 -0.000 0.0016 0.137 0.0016
1709914398.4225 0.140 -0.000 0.0031 0.140 0.0031
1709914398.4296 0.143 -0.000 0.0000 0.143 0.0000
1709914398.4386 0.147 -0.000 -0.0047 0.147 -0.0047
1709914398.4467 0.150 -0.000 -0.0016 0.150 -0.0016
1709914398.4537 0.154 -0.000 0.0031 0.154 0.0031
1709914398.4625 0.157 -0.000 0.0047 0.157 0.0047
1709914398.4707 0.160 -0.000 0.0000 0.160 0.0000
1709914398.4779 0.163 -0.000 -0.0031 0.163 -0.0031
1709914398.4857 0.167 -0.000 -0.0047 0.167 -0.0047
1709914398.4949 0.170 -0.000 -0.0016 0.170 -0.0016
1709914398.5018 0.172 -0.000 0.0000 0.172 0.0000
1709914398.5106 0.176 -0.000 0.0000 0.176 0.0000
1709914398.5188 0.179 -0.000 -0.0031 0.179 -0.0031
1709914398.5260 0.182 -0.000 -0.0031 0.182 -0.0031
1709914398.5338 0.186 -0.000 0.0000 0.186 0.0000
1709914398.5431 0.188 -0.000 0.0016 0.188 0.0016
1709914398.5499 0.191 -0.000 0.0000 0.191 0.0000
1709914398.5577 0.195 -0.000 0.0000 0.195 0.0000
1709914398.5671 0.198 -0.000 0.0016 0.198 0.0016
1709914398.5742 0.201 -0.000 0.0016 0.201 0.0016
1709914398.5820 0.204 -0.000 0.0016 0.204 0.0016
1709914398.5914 0.208 -0.000 0.0000 0.208 0.0000
1709914398.5985 0.211 -0.000 0.0016 0.211 0.0016
1709914398.6061 0.214 -0.000 0.0016 0.214 0.0016
1709914398.6153 0.217 -0.000 0.0031 0.217 0.0031
1709914398.6225 0.220 -0.000 0.0016 0.220 0.0016
1709914398.6304 0.223 -0.000 0.0000 0.223 0.0000
1709914398.6386 0.227 -0.000 0.0000 0.227 0.0000
1709914398.6457 0.230 -0.000 0.0000 0.230 0.0000
1709914398.6542 0.232 -0.000 0.0000 0.232 0.0000
1709914398.6635 0.235 -0.000 0.0000 0.235 0.0000
1709914398.6706 0.239 -0.000 0.0031 0.239 0.0031
1709914398.6786 0.243 -0.000 -0.0000 0.243 -0.0000
1709914398.6877 0.246 -0.000 -0.0000 0.246 -0.0000
1709914398.6938 0.249 -0.000 -0.0000 0.249 -0.0000
1709914398.7022 0.252 -0.000 -0.0000 0.252 -0.0000
1709914398.7112 0.255 -0.000 -0.0016 0.255 -0.0016
1709914398.7184 0.258 -0.000 -0.0016 0.258 -0.0016
1709914398.7266 0.261 -0.000 -0.0000 0.261 -0.0000
1709914398.7346 0.265 -0.000 -0.0000 0.265 -0.0000
1709914398.7419 0.267 -0.000 -0.0000 0.267 -0.0000
1709914398.7504 0.270 -0.000 -0.0016 0.270 -0.0016
1709914398.7586 0.273 -0.000 -0.0000 0.273 -0.0000
1709914398.7660 0.277 -0.000 -0.0000 0.277 -0.0000
1709914398.7737 0.281 -0.000 -0.0000 0.281 -0.0000
1709914398.7828 0.283 -0.000 -0.0016 0.283 -0.0016
1709914398.7899 0.286 -0.000 -0.0016 0.286 -0.0016
1709914398.7978 0.289 -0.000 -0.0016 0.289 -0.0016
1709914398.8067 0.293 -0.000 -0.0016 0.293 -0.0016
1709914398.8140 0.296 -0.000 -0.0016 0.296 -0.0016
1709914398.8226 0.299 -0.000 -0.0016 0.299 -0.0016
1709914398.8309 0.302 -0.000 -0.0031 0.302 -0.0031
1709914398.8380 0.306 -0.000 -0.0016 0.306 -0.0016
1709914398.8459 0.309 -0.000 -0.0000 0.309 -0.0000
1709914398.8549 0.312 -0.000 -0.0000 0.312 -0.0000
1709914398.8621 0.315 -0.000 0.0016 0.315 0.0016
1709914398.8698 0.318 -0.000 -0.0016 0.318 -0.0016
1709914398.8791 0.322 -0.000 -0.0031 0.322 -0.0031
1709914398.8862 0.325 -0.000 -0.0031 0.325 -0.0031
1709914398.8940 0.328 -0.000 -0.0000 0.328 -0.0000
1709914398.9029 0.331 -0.000 0.0016 0.331 0.0016
1709914398.9101 0.334 -0.000 -0.0016 0.334 -0.0016
1709914398.9178 0.337 -0.000 -0.0047 0.337 -0.0047
1709914398.9271 0.340 -0.000 -0.0031 0.340 -0.0031
1709914398.9342 0.343 -0.000 -0.0000 0.343 -0.0000
1709914398.9421 0.347 -0.000 0.0031 0.347 0.0031
1709914398.9509 0.350 -0.000 0.0016 0.350 0.0016
1709914398.9582 0.353 -0.000 -0.0016 0.353 -0.0016
1709914398.9662 0.356 -0.000 -0.0016 0.356 -0.0016
1709914398.9745 0.359 -0.000 0.0031 0.359 0.0031
1709914398.9816 0.363 -0.000 0.0047 0.363 0.0047
1709914398.9906 0.366 -0.000 0.0031 0.366 0.0031
1709914398.9988 0.369 -0.000 -0.0000 0.369 -0.0000
1709914399.0067 0.372 -0.000 -0.0016 0.372 -0.0016
1709914399.0146 0.376 -0.000 0.0016 0.376 0.0016
1709914399.0229 0.379 -0.000 0.0047 0.379 0.0047
1709914399.0301 0.382 -0.000 0.0062 0.382 0.0062
1709914399.0381 0.385 -0.000 0.0016 0.385 0.0016
1709914399.0475 0.388 -0.000 -0.0031 0.388 -0.0031
1709914399.0543 0.391 -0.000 -0.0016 0.391 -0.0016
1709914399.0621 0.395 -0.000 0.0016 0.395 0.0016
1709914399.0714 0.398 -0.000 0.0031 0.398 0.0031
1709914399.0779 0.401 -0.000 -0.0000 0.401 -0.0000
1709914399.0857 0.404 -0.000 -0.0016 0.404 -0.0016
1709914399.0948 0.408 -0.000 -0.0016 0.408 -0.0016
1709914399.1018 0.410 -0.000 -0.0016 0.410 -0.0016
1709914399.1096 0.413 -0.000 -0.0000 0.413 -0.0000
1709914399.1189 0.417 -0.000 -0.0016 0.417 -0.0016
1709914399.1264 0.420 -0.000 -0.0016 0.420 -0.0016
1709914399.1344 0.423 -0.000 -0.0016 0.423 -0.0016
1709914399.1426 0.426 -0.000 -0.0016 0.426 -0.0016
1709914399.1505 0.429 -0.000 -0.0016 0.429 -0.0016
1709914399.1584 0.432 -0.000 -0.0016 0.432 -0.0016
1709914399.1668 0.435 -0.000 -0.0000 0.435 -0.0000
1709914399.1740 0.439 -0.000 -0.0000 0.439 -0.0000
1709914399.1816 0.442 -0.000 -0.0031 0.442 -0.0031
1709914399.1911 0.445 -0.000 -0.0016 0.445 -0.0016
1709914399.1985 0.448 -0.000 0.0016 0.448 0.0016
1709914399.2060 0.452 -0.000 0.0031 0.452 0.0031
1709914399.2154 0.455 -0.000 0.0016 0.455 0.0016
1709914399.2216 0.458 -0.000 -0.0000 0.458 -0.0000
1709914399.2304 0.461 -0.000 -0.0016 0.461 -0.0016
1709914399.2386 0.463 -0.000 0.0016 0.463 0.0016
1709914399.2461 0.467 -0.000 0.0016 0.467 0.0016
1709914399.2546 0.470 -0.000 -0.0000 0.470 -0.0000
1709914399.2629 0.474 -0.000 -0.0016 0.474 -0.0016
1709914399.2701 0.477 -0.000 -0.0031 0.477 -0.0031
1709914399.2781 0.480 -0.000 -0.0000 0.480 -0.0000
1709914399.2866 0.483 -0.000 0.0031 0.483 0.0031
1709914399.2939 0.486 -0.000 0.0031 0.486 0.0031
1709914399.3024 0.489 -0.000 -0.0016 0.489 -0.0016
1709914399.3106 0.492 -0.000 -0.0016 0.492 -0.0016
1709914399.3178 0.496 -0.000 -0.0000 0.496 -0.0000
