% Pose without folding and reset (log_20240224_140233.085/log_pose_abs.txt)
% 1 	Time (sec)
% 2,3 	Position x,y (m)
% 4 	heading (rad)
% 5 	Driven distance (m) - signed
% 6 	Turned angle (rad) - signed
1708779754.8106 0.000 0.000 0.0000 0.000 0.0000
1708779754.8188 0.000 0.000 0.0000 0.000 0.0000
1708779754.8263 0.015 0.000 0.0000 0.015 0.0000
1708779754.8337 0.028 -0.000 -0.0016 0.028 -0.0016
1708779754.8414 0.041 -0.000 -0.0047 0.041 -0.0047
1708779754.8495 0.052 -0.000 -0.0047 0.052 -0.0047
1708779754.8582 0.062 -0.000 -0.0062 0.062 -0.0062
1708779754.8652 0.071 -0.000 -0.0078 0.071 -0.0078
1708779754.8738 0.078 -0.000 -0.0062 0.078 -0.0062
1708779754.8816 0.085 -0.000 -0.0062 0.085 -0.0062
1708779754.8899 0.089 -0.000 -0.0078 0.089 -0.0078
1708779754.8981 0.090 -0.000 -0.0078 0.090 -0.0078
1708779754.9059 0.089 -0.000 -0.0062 0.089 -0.0062
1708779754.9133 0.089 -0.000 -0.0016 0.089 -0.0016
1708779754.9221 0.091 -0.000 -0.0000 0.091 -0.0000
1708779754.9298 0.094 -0.000 -0.0000 0.094 -0.0000
1708779754.9381 0.097 -0.000 -0.0000 0.097 -0.0000
1708779754.9464 0.099 -0.000 -0.0000 0.099 -0.0000
1708779754.9541 0.102 -0.000 0.0016 0.102 0.0016
1708779754.9619 0.106 -0.000 0.0016 0.106 0.0016
1708779754.9699 0.110 -0.000 0.0016 0.110 0.0016
1708779754.9843 0.114 -0.000 0.0016 0.114 0.0016
1708779754.9860 0.119 -0.000 0.0016 0.119 0.0016
1708779755.0006 0.122 -0.000 0.0016 0.122 0.0016
1708779755.0081 0.122 -0.000 0.0016 0.122 0.0016
1708779755.0107 0.122 -0.000 0.0031 0.122 0.0031
1708779755.0177 0.124 -0.000 0.0016 0.124 0.0016
1708779755.0258 0.129 -0.000 0.0016 0.129 0.0016
1708779755.0335 0.135 -0.000 0.0016 0.135 0.0016
1708779755.0420 0.142 -0.000 0.0016 0.142 0.0016
1708779755.0509 0.148 -0.000 0.0016 0.148 0.0016
1708779755.0582 0.153 -0.000 0.0031 0.153 0.0031
1708779755.0664 0.159 -0.000 0.0031 0.159 0.0031
1708779755.0736 0.165 -0.000 -0.0000 0.165 -0.0000
1708779755.0818 0.171 -0.000 -0.0031 0.171 -0.0031
1708779755.0904 0.177 -0.000 0.0016 0.177 0.0016
1708779755.0985 0.183 -0.000 0.0047 0.183 0.0047
1708779755.1057 0.189 -0.000 0.0016 0.189 0.0016
1708779755.1143 0.195 -0.000 -0.0031 0.195 -0.0031
1708779755.1220 0.201 -0.000 -0.0031 0.201 -0.0031
1708779755.1303 0.207 -0.000 -0.0000 0.207 -0.0000
1708779755.1379 0.213 -0.000 0.0016 0.213 0.0016
1708779755.1459 0.220 -0.000 -0.0000 0.220 -0.0000
1708779755.1541 0.226 -0.000 0.0016 0.226 0.0016
1708779755.1627 0.232 -0.000 -0.0000 0.232 -0.0000
1708779755.1703 0.238 -0.000 -0.0000 0.238 -0.0000
1708779755.1783 0.245 -0.000 -0.0000 0.245 -0.0000
1708779755.1865 0.251 -0.000 -0.0000 0.251 -0.0000
1708779755.1943 0.257 -0.000 -0.0000 0.257 -0.0000
1708779755.2024 0.264 -0.000 0.0031 0.264 0.0031
1708779755.2097 0.271 -0.000 0.0016 0.271 0.0016
1708779755.2180 0.276 -0.000 -0.0000 0.276 -0.0000
1708779755.2260 0.282 -0.000 -0.0000 0.282 -0.0000
1708779755.2341 0.288 -0.000 -0.0016 0.288 -0.0016
1708779755.2426 0.295 -0.000 -0.0000 0.295 -0.0000
1708779755.2498 0.302 -0.000 -0.0000 0.302 -0.0000
1708779755.2579 0.308 -0.000 0.0016 0.308 0.0016
1708779755.2665 0.314 -0.000 0.0047 0.314 0.0047
1708779755.2737 0.320 -0.000 0.0016 0.320 0.0016
1708779755.2818 0.327 -0.000 -0.0000 0.327 -0.0000
1708779755.2899 0.333 -0.000 0.0016 0.333 0.0016
1708779755.2977 0.339 -0.000 0.0016 0.339 0.0016
1708779755.3063 0.346 -0.000 -0.0000 0.346 -0.0000
1708779755.3138 0.352 -0.000 -0.0000 0.352 -0.0000
1708779755.3216 0.359 -0.000 0.0016 0.359 0.0016
1708779755.3297 0.365 -0.000 0.0031 0.365 0.0031
1708779755.3376 0.371 -0.000 0.0031 0.371 0.0031
1708779755.3458 0.377 -0.000 0.0031 0.377 0.0031
1708779755.3539 0.384 -0.000 -0.0000 0.384 -0.0000
1708779755.3623 0.391 -0.000 -0.0016 0.391 -0.0016
1708779755.3699 0.397 -0.000 -0.0000 0.397 -0.0000
1708779755.3775 0.404 -0.000 0.0031 0.404 0.0031
1708779755.3856 0.409 -0.000 0.0047 0.409 0.0047
1708779755.3940 0.415 -0.000 0.0016 0.415 0.0016
1708779755.4023 0.422 -0.000 -0.0000 0.422 -0.0000
1708779755.4099 0.429 -0.000 -0.0000 0.429 -0.0000
1708779755.4178 0.436 -0.000 -0.0000 0.436 -0.0000
1708779755.4260 0.442 -0.000 -0.0000 0.442 -0.0000
1708779755.4339 0.448 -0.000 -0.0016 0.448 -0.0016
1708779755.4423 0.454 -0.000 -0.0016 0.454 -0.0016
1708779755.4495 0.461 -0.000 -0.0000 0.461 -0.0000
1708779755.4586 0.468 -0.000 -0.0016 0.468 -0.0016
1708779755.4667 0.474 -0.000 -0.0016 0.474 -0.0016
1708779755.4739 0.480 -0.000 -0.0000 0.480 -0.0000
1708779755.4815 0.487 -0.000 0.0016 0.487 0.0016
1708779755.4898 0.493 -0.000 0.0016 0.493 0.0016
1708779755.4983 0.498 -0.000 -0.0000 0.498 -0.0000
1708779755.5060 0.505 -0.000 -0.0000 0.505 -0.0000
1708779755.5141 0.512 -0.000 -0.0016 0.512 -0.0016
1708779755.5219 0.518 -0.000 -0.0031 0.518 -0.0031
1708779755.5300 0.524 -0.000 -0.0031 0.524 -0.0031
1708779755.5393 0.530 -0.000 -0.0000 0.530 -0.0000
1708779755.5464 0.537 -0.000 -0.0000 0.537 -0.0000
1708779755.5539 0.544 -0.000 -0.0000 0.544 -0.0000
1708779755.5620 0.550 -0.000 -0.0000 0.550 -0.0000
1708779755.5698 0.555 -0.000 0.0016 0.555 0.0016
1708779755.5784 0.561 -0.000 0.0016 0.561 0.0016
1708779755.5856 0.569 -0.000 0.0016 0.569 0.0016
1708779755.5937 0.576 -0.000 -0.0000 0.576 -0.0000
1708779755.6019 0.582 -0.000 -0.0000 0.582 -0.0000
1708779755.6101 0.587 -0.000 -0.0000 0.587 -0.0000
1708779755.6179 0.593 -0.000 -0.0000 0.593 -0.0000
1708779755.6259 0.600 -0.000 0.0031 0.600 0.0031
1708779755.6339 0.607 -0.000 0.0016 0.607 0.0016
1708779755.6448 0.613 -0.000 -0.0000 0.613 -0.0000
1708779755.6500 0.619 -0.000 0.0016 0.619 0.0016
1708779755.6582 0.625 -0.000 0.0031 0.625 0.0031
1708779755.6671 0.630 0.000 0.0016 0.630 0.0016
1708779755.6738 0.637 0.000 -0.0016 0.637 -0.0016
1708779755.6899 0.643 -0.000 -0.0016 0.643 -0.0016
1708779755.6920 0.650 -0.000 -0.0000 0.650 -0.0000
1708779755.7016 0.656 -0.000 0.0016 0.656 0.0016
1708779755.7057 0.663 0.000 0.0047 0.663 0.0047
1708779755.7144 0.669 0.000 0.0047 0.669 0.0047
1708779755.7223 0.673 0.000 0.0062 0.673 0.0062
1708779755.7296 0.677 0.000 0.0047 0.677 0.0047
1708779755.7383 0.682 0.000 -0.0000 0.682 -0.0000
