% Pose without folding and reset (log_20240216_161231.007/log_pose_abs.txt)
% 1 	Time (sec)
% 2,3 	Position x,y (m)
% 4 	heading (rad)
% 5 	Driven distance (m) - signed
% 6 	Turned angle (rad) - signed
1708096351.7763 0.000 0.000 0.0000 0.000 0.0000
1708096351.7839 0.000 0.000 0.0000 0.000 0.0000
1708096351.7915 -0.000 -0.000 0.0031 -0.000 0.0031
1708096351.7992 -0.000 -0.000 0.0031 -0.000 0.0031
1708096351.8075 -0.000 0.000 0.0047 -0.000 0.0047
1708096351.8157 -0.000 -0.000 0.0031 -0.000 0.0031
1708096351.8233 -0.000 -0.000 0.0031 -0.000 0.0031
1708096351.8321 -0.000 0.000 0.0047 -0.000 0.0047
1708096351.8400 -0.000 0.000 0.0047 -0.000 0.0047
1708096351.8476 -0.000 0.000 0.0047 -0.000 0.0047
1708096351.8566 -0.000 -0.000 0.0031 -0.000 0.0031
1708096351.8646 -0.000 -0.000 0.0031 -0.000 0.0031
1708096351.8726 -0.000 -0.000 0.0031 -0.000 0.0031
1708096351.8822 -0.000 -0.000 0.0031 -0.000 0.0031
1708096351.8880 -0.000 0.000 0.0047 -0.000 0.0047
1708096351.8959 -0.000 0.000 0.0047 -0.000 0.0047
1708096351.9049 -0.000 0.000 0.0047 -0.000 0.0047
1708096351.9122 -0.000 -0.000 0.0031 -0.000 0.0031
1708096351.9200 -0.000 -0.000 0.0016 -0.000 0.0016
1708096351.9288 0.000 0.000 0.0016 0.000 0.0016
1708096351.9359 0.000 0.000 0.0016 0.000 0.0016
1708096351.9437 0.001 0.000 0.0078 0.001 0.0078
1708096351.9525 0.002 0.000 0.0124 0.002 0.0124
1708096351.9601 0.003 0.000 0.0186 0.003 0.0186
1708096351.9683 0.004 0.000 0.0248 0.004 0.0248
1708096351.9764 0.005 0.000 0.0295 0.005 0.0295
1708096351.9845 0.006 0.000 0.0326 0.006 0.0326
1708096351.9922 0.007 0.000 0.0357 0.007 0.0357
1708096351.9998 0.008 0.000 0.0404 0.008 0.0404
1708096352.0084 0.009 0.000 0.0450 0.009 0.0450
1708096352.0159 0.010 0.000 0.0543 0.010 0.0543
1708096352.0246 0.012 0.000 0.0683 0.012 0.0683
1708096352.0318 0.013 0.001 0.0823 0.013 0.0823
1708096352.0405 0.015 0.001 0.0978 0.015 0.0978
1708096352.0482 0.017 0.001 0.1087 0.017 0.1087
1708096352.0557 0.019 0.001 0.1195 0.019 0.1195
1708096352.0643 0.020 0.001 0.1288 0.020 0.1288
1708096352.0719 0.021 0.001 0.1366 0.021 0.1366
1708096352.0805 0.023 0.002 0.1490 0.023 0.1490
1708096352.0877 0.024 0.002 0.1599 0.024 0.1599
1708096352.0965 0.025 0.002 0.1723 0.025 0.1723
1708096352.1040 0.027 0.002 0.1863 0.027 0.1863
1708096352.1125 0.029 0.003 0.2002 0.029 0.2002
1708096352.1202 0.030 0.003 0.2127 0.030 0.2127
1708096352.1278 0.032 0.003 0.2266 0.032 0.2266
1708096352.1360 0.033 0.004 0.2406 0.034 0.2406
1708096352.1438 0.035 0.004 0.2546 0.035 0.2546
1708096352.1525 0.036 0.004 0.2654 0.037 0.2654
1708096352.1606 0.037 0.005 0.2747 0.038 0.2747
1708096352.1722 0.039 0.005 0.2887 0.040 0.2887
1708096352.1759 0.041 0.006 0.3073 0.042 0.3073
1708096352.1846 0.043 0.007 0.3229 0.044 0.3229
1708096352.1991 0.043 0.007 0.3244 0.044 0.3244
1708096352.2012 0.044 0.007 0.3291 0.045 0.3291
1708096352.2082 0.045 0.007 0.3384 0.046 0.3384
1708096352.2162 0.047 0.008 0.3539 0.048 0.3539
1708096352.2240 0.049 0.009 0.3756 0.050 0.3756
1708096352.2326 0.050 0.009 0.3912 0.052 0.3912
1708096352.2414 0.052 0.010 0.4005 0.053 0.4005
1708096352.2479 0.053 0.010 0.4176 0.055 0.4176
1708096352.2558 0.055 0.011 0.4346 0.056 0.4346
1708096352.2646 0.055 0.011 0.4486 0.057 0.4486
1708096352.2718 0.057 0.012 0.4672 0.059 0.4672
1708096352.2807 0.059 0.013 0.4843 0.061 0.4843
1708096352.2879 0.060 0.014 0.5014 0.062 0.5014
1708096352.2956 0.061 0.015 0.5200 0.064 0.5200
1708096352.3045 0.063 0.015 0.5340 0.066 0.5340
1708096352.3122 0.064 0.016 0.5464 0.067 0.5464
1708096352.3199 0.065 0.017 0.5557 0.068 0.5557
1708096352.3285 0.066 0.018 0.5681 0.070 0.5681
1708096352.3368 0.068 0.019 0.5836 0.072 0.5836
1708096352.3444 0.069 0.020 0.5945 0.073 0.5945
1708096352.3522 0.071 0.021 0.5992 0.075 0.5992
1708096352.3600 0.072 0.021 0.6023 0.077 0.6023
1708096352.3677 0.073 0.022 0.6116 0.078 0.6116
1708096352.3769 0.074 0.023 0.6193 0.079 0.6193
1708096352.3868 0.076 0.024 0.6209 0.081 0.6209
1708096352.3949 0.077 0.025 0.6147 0.082 0.6147
1708096352.4001 0.078 0.026 0.6100 0.084 0.6100
1708096352.4080 0.079 0.026 0.6054 0.085 0.6054
1708096352.4161 0.080 0.027 0.5976 0.086 0.5976
1708096352.4240 0.081 0.028 0.5868 0.088 0.5868
1708096352.4347 0.082 0.028 0.5743 0.089 0.5743
1708096352.4420 0.083 0.029 0.5635 0.090 0.5635
1708096352.4482 0.085 0.030 0.5526 0.092 0.5526
1708096352.4559 0.086 0.031 0.5417 0.093 0.5417
1708096352.4647 0.087 0.031 0.5355 0.094 0.5355
1708096352.4756 0.088 0.032 0.5231 0.096 0.5231
1708096352.4802 0.090 0.033 0.5076 0.098 0.5076
1708096352.4883 0.091 0.034 0.4952 0.099 0.4952
1708096352.4956 0.092 0.034 0.4921 0.100 0.4921
1708096352.5040 0.093 0.035 0.4859 0.101 0.4859
1708096352.5126 0.094 0.035 0.4734 0.103 0.4734
1708096352.5199 0.096 0.036 0.4626 0.105 0.4626
1708096352.5287 0.098 0.037 0.4626 0.107 0.4626
1708096352.5359 0.099 0.038 0.4672 0.108 0.4672
1708096352.5437 0.100 0.038 0.4641 0.109 0.4641
1708096352.5525 0.101 0.039 0.4626 0.111 0.4626
1708096352.5599 0.103 0.040 0.4626 0.112 0.4626
1708096352.5690 0.104 0.040 0.4657 0.114 0.4657
1708096352.5769 0.105 0.041 0.4672 0.115 0.4672
1708096352.5841 0.106 0.041 0.4672 0.116 0.4672
1708096352.5918 0.108 0.042 0.4672 0.118 0.4672
1708096352.6016 0.109 0.043 0.4719 0.120 0.4719
1708096352.6082 0.110 0.043 0.4781 0.121 0.4781
1708096352.6160 0.112 0.044 0.4843 0.122 0.4843
1708096352.6248 0.113 0.045 0.4890 0.124 0.4890
1708096352.6320 0.114 0.045 0.4967 0.125 0.4967
1708096352.6397 0.115 0.046 0.5045 0.126 0.5045
1708096352.6527 0.116 0.047 0.5138 0.128 0.5138
1708096352.6561 0.118 0.048 0.5216 0.130 0.5216
1708096352.6639 0.120 0.049 0.5293 0.131 0.5293
1708096352.6728 0.120 0.049 0.5371 0.132 0.5371
1708096352.6803 0.121 0.049 0.5479 0.133 0.5479
1708096352.6878 0.123 0.051 0.5619 0.135 0.5619
1708096352.6964 0.125 0.052 0.5805 0.137 0.5805
1708096352.7040 0.126 0.053 0.5961 0.139 0.5961
1708096352.7118 0.127 0.054 0.6085 0.141 0.6085
1708096352.7206 0.129 0.055 0.6240 0.143 0.6240
1708096352.7282 0.130 0.056 0.6395 0.144 0.6395
1708096352.7371 0.132 0.057 0.6566 0.146 0.6566
1708096352.7439 0.133 0.058 0.6706 0.147 0.6706
1708096352.7526 0.134 0.059 0.6861 0.149 0.6861
1708096352.7603 0.136 0.060 0.6985 0.151 0.6985
1708096352.7681 0.137 0.061 0.7094 0.152 0.7094
1708096352.7759 0.137 0.061 0.7187 0.153 0.7187
1708096352.7842 0.139 0.063 0.7265 0.155 0.7265
1708096352.7920 0.140 0.064 0.7420 0.157 0.7420
1708096352.7997 0.142 0.065 0.7575 0.159 0.7575
1708096352.8085 0.143 0.066 0.7668 0.161 0.7668
1708096352.8160 0.144 0.067 0.7622 0.162 0.7622
1708096352.8237 0.145 0.068 0.7497 0.164 0.7497
1708096352.8320 0.146 0.069 0.7544 0.165 0.7544
1708096352.8409 0.147 0.070 0.7622 0.166 0.7622
1708096352.8485 0.148 0.071 0.7606 0.168 0.7606
1708096352.8562 0.149 0.072 0.7606 0.169 0.7606
1708096352.8640 0.150 0.073 0.7591 0.171 0.7591
1708096352.8726 0.151 0.074 0.7606 0.172 0.7606
1708096352.8804 0.152 0.075 0.7668 0.173 0.7668
1708096352.8878 0.153 0.076 0.7684 0.175 0.7684
1708096352.8966 0.155 0.078 0.7606 0.177 0.7606
1708096352.9043 0.156 0.079 0.7513 0.178 0.7513
1708096352.9121 0.157 0.080 0.7435 0.180 0.7435
1708096352.9207 0.158 0.081 0.7373 0.181 0.7373
1708096352.9284 0.159 0.082 0.7249 0.183 0.7249
1708096352.9368 0.160 0.083 0.7109 0.184 0.7109
1708096352.9445 0.161 0.084 0.6985 0.186 0.6985
1708096352.9523 0.162 0.084 0.6876 0.187 0.6876
1708096352.9610 0.164 0.085 0.6752 0.189 0.6752
1708096352.9686 0.165 0.087 0.6628 0.191 0.6628
1708096352.9763 0.166 0.088 0.6519 0.192 0.6519
1708096352.9842 0.168 0.089 0.6426 0.194 0.6426
1708096352.9925 0.169 0.089 0.6395 0.195 0.6395
1708096353.0002 0.170 0.091 0.6333 0.197 0.6333
1708096353.0083 0.172 0.092 0.6178 0.199 0.6178
1708096353.0165 0.173 0.093 0.5976 0.201 0.5976
1708096353.0242 0.174 0.093 0.5883 0.202 0.5883
1708096353.0320 0.176 0.094 0.5899 0.204 0.5899
1708096353.0404 0.177 0.095 0.5945 0.205 0.5945
1708096353.0481 0.178 0.096 0.5883 0.207 0.5883
1708096353.0562 0.179 0.097 0.5759 0.208 0.5759
1708096353.0645 0.181 0.098 0.5743 0.210 0.5743
1708096353.0723 0.182 0.099 0.5805 0.212 0.5805
1708096353.0805 0.183 0.099 0.5868 0.213 0.5868
1708096353.0884 0.185 0.100 0.5821 0.214 0.5821
1708096353.0960 0.186 0.101 0.5774 0.216 0.5774
1708096353.1042 0.188 0.102 0.5836 0.218 0.5836
1708096353.1125 0.189 0.103 0.5992 0.220 0.5992
1708096353.1202 0.190 0.104 0.6131 0.221 0.6131
1708096353.1285 0.191 0.105 0.6225 0.223 0.6225
1708096353.1363 0.193 0.106 0.6302 0.224 0.6302
1708096353.1439 0.194 0.107 0.6426 0.226 0.6426
1708096353.1521 0.195 0.108 0.6566 0.228 0.6566
1708096353.1602 0.197 0.109 0.6706 0.229 0.6706
1708096353.1680 0.198 0.110 0.6814 0.231 0.6814
1708096353.1763 0.199 0.111 0.6939 0.233 0.6939
1708096353.1841 0.201 0.112 0.7094 0.234 0.7094
1708096353.1917 0.202 0.113 0.7249 0.236 0.7249
1708096353.1999 0.203 0.114 0.7342 0.237 0.7342
1708096353.2081 0.204 0.115 0.7451 0.239 0.7451
1708096353.2160 0.205 0.116 0.7606 0.241 0.7606
1708096353.2242 0.207 0.118 0.7746 0.243 0.7746
1708096353.2319 0.208 0.119 0.7839 0.244 0.7839
1708096353.2397 0.209 0.120 0.7870 0.246 0.7870
1708096353.2483 0.210 0.121 0.7901 0.248 0.7901
1708096353.2566 0.211 0.122 0.8010 0.249 0.8010
1708096353.2645 0.212 0.123 0.8118 0.251 0.8118
1708096353.2724 0.213 0.124 0.8165 0.252 0.8165
1708096353.2805 0.214 0.126 0.8165 0.254 0.8165
1708096353.2878 0.215 0.127 0.8258 0.255 0.8258
1708096353.2960 0.217 0.128 0.8351 0.257 0.8351
1708096353.3042 0.217 0.129 0.8444 0.258 0.8444
1708096353.3120 0.218 0.130 0.8506 0.260 0.8506
1708096353.3211 0.219 0.131 0.8537 0.261 0.8537
1708096353.3284 0.220 0.132 0.8584 0.263 0.8584
1708096353.3357 0.222 0.134 0.8646 0.265 0.8646
1708096353.3445 0.222 0.135 0.8724 0.266 0.8724
1708096353.3518 0.223 0.135 0.8770 0.266 0.8770
1708096353.3606 0.224 0.136 0.8770 0.268 0.8770
1708096353.3677 0.225 0.138 0.8770 0.270 0.8770
1708096353.3759 0.227 0.140 0.8817 0.272 0.8817
1708096353.3844 0.227 0.141 0.8925 0.274 0.8925
1708096353.3927 0.228 0.141 0.9003 0.275 0.9003
1708096353.3999 0.229 0.142 0.9034 0.276 0.9034
1708096353.4077 0.230 0.144 0.9081 0.278 0.9081
1708096353.4161 0.231 0.145 0.9096 0.280 0.9096
1708096353.4244 0.232 0.147 0.9158 0.281 0.9158
1708096353.4322 0.233 0.148 0.9236 0.283 0.9236
1708096353.4405 0.234 0.149 0.9267 0.284 0.9267
1708096353.4478 0.235 0.150 0.9282 0.286 0.9282
1708096353.4565 0.236 0.152 0.9376 0.288 0.9376
1708096353.4637 0.237 0.153 0.9515 0.289 0.9515
1708096353.4719 0.238 0.154 0.9593 0.291 0.9593
1708096353.4799 0.238 0.155 0.9686 0.292 0.9686
1708096353.4879 0.240 0.157 0.9795 0.294 0.9795
1708096353.4962 0.241 0.158 0.9934 0.296 0.9934
1708096353.5039 0.241 0.159 0.9997 0.297 0.9997
1708096353.5121 0.242 0.161 1.0028 0.298 1.0028
1708096353.5204 0.243 0.162 1.0074 0.300 1.0074
1708096353.5281 0.244 0.164 1.0167 0.302 1.0167
1708096353.5359 0.245 0.165 1.0291 0.304 1.0291
1708096353.5442 0.246 0.167 1.0400 0.306 1.0400
1708096353.5517 0.246 0.167 1.0447 0.306 1.0447
1708096353.5599 0.247 0.169 1.0416 0.308 1.0416
1708096353.5686 0.248 0.171 1.0431 0.310 1.0431
1708096353.5763 0.249 0.172 1.0509 0.312 1.0509
1708096353.5841 0.250 0.173 1.0617 0.313 1.0617
1708096353.5922 0.250 0.174 1.0633 0.314 1.0633
1708096353.6001 0.251 0.176 1.0617 0.316 1.0617
1708096353.6083 0.252 0.178 1.0648 0.318 1.0648
1708096353.6166 0.253 0.179 1.0773 0.320 1.0773
1708096353.6244 0.254 0.181 1.0897 0.322 1.0897
1708096353.6322 0.254 0.182 1.0974 0.323 1.0974
1708096353.6401 0.255 0.183 1.1052 0.324 1.1052
1708096353.6479 0.256 0.185 1.1192 0.326 1.1192
1708096353.6561 0.256 0.186 1.1378 0.328 1.1378
1708096353.6644 0.257 0.188 1.1533 0.329 1.1533
1708096353.6721 0.258 0.189 1.1657 0.331 1.1657
1708096353.6802 0.258 0.191 1.1797 0.333 1.1797
1708096353.6881 0.259 0.193 1.1968 0.335 1.1968
1708096353.6959 0.260 0.195 1.2139 0.337 1.2139
1708096353.7041 0.260 0.196 1.2294 0.339 1.2294
1708096353.7124 0.261 0.198 1.2449 0.341 1.2449
1708096353.7202 0.262 0.200 1.2635 0.342 1.2635
1708096353.7282 0.262 0.202 1.2837 0.345 1.2837
1708096353.7358 0.263 0.204 1.3039 0.347 1.3039
1708096353.7437 0.263 0.205 1.3241 0.348 1.3241
1708096353.7519 0.264 0.207 1.3380 0.350 1.3380
1708096353.7602 0.264 0.209 1.3505 0.352 1.3505
1708096353.7681 0.264 0.210 1.3629 0.353 1.3629
1708096353.7758 0.265 0.212 1.3753 0.355 1.3753
1708096353.7836 0.265 0.213 1.3877 0.356 1.3877
1708096353.7925 0.265 0.215 1.3939 0.358 1.3939
1708096353.8007 0.265 0.216 1.3970 0.359 1.3970
1708096353.8080 0.266 0.218 1.3986 0.361 1.3986
1708096353.8157 0.266 0.219 1.4001 0.362 1.4001
1708096353.8239 0.266 0.220 1.4032 0.363 1.4032
1708096353.8318 0.266 0.221 1.4032 0.364 1.4032
1708096353.8407 0.267 0.222 1.4017 0.365 1.4017
1708096353.8479 0.267 0.224 1.4001 0.367 1.4001
1708096353.8562 0.267 0.225 1.3986 0.368 1.3986
1708096353.8640 0.267 0.226 1.3970 0.370 1.3970
1708096353.8722 0.267 0.228 1.3939 0.371 1.3939
1708096353.8806 0.268 0.229 1.3908 0.372 1.3908
1708096353.8884 0.268 0.230 1.3877 0.374 1.3877
1708096353.8961 0.268 0.232 1.3831 0.376 1.3831
1708096353.9045 0.269 0.234 1.3800 0.377 1.3800
1708096353.9127 0.269 0.235 1.3769 0.379 1.3769
1708096353.9200 0.269 0.237 1.3769 0.380 1.3769
1708096353.9286 0.270 0.239 1.3753 0.382 1.3753
1708096353.9362 0.270 0.240 1.3737 0.383 1.3737
1708096353.9446 0.270 0.241 1.3722 0.384 1.3722
1708096353.9524 0.270 0.242 1.3753 0.386 1.3753
1708096353.9604 0.271 0.244 1.3769 0.388 1.3769
1708096353.9677 0.271 0.246 1.3800 0.389 1.3800
1708096353.9761 0.271 0.248 1.3846 0.391 1.3846
1708096353.9844 0.272 0.249 1.3862 0.392 1.3862
1708096353.9920 0.272 0.250 1.3877 0.394 1.3877
1708096354.0004 0.272 0.252 1.3877 0.396 1.3877
1708096354.0086 0.273 0.254 1.3924 0.398 1.3924
1708096354.0159 0.273 0.255 1.3986 0.399 1.3986
1708096354.0242 0.273 0.256 1.4001 0.400 1.4001
1708096354.0317 0.273 0.258 1.3955 0.402 1.3955
1708096354.0408 0.274 0.260 1.3939 0.404 1.3939
1708096354.0480 0.274 0.262 1.4017 0.406 1.4017
1708096354.0557 0.274 0.263 1.4126 0.407 1.4126
1708096354.0641 0.274 0.264 1.4157 0.408 1.4157
1708096354.0724 0.275 0.266 1.4126 0.410 1.4126
1708096354.0801 0.275 0.268 1.4094 0.412 1.4094
1708096354.0880 0.275 0.270 1.4079 0.414 1.4079
1708096354.0962 0.275 0.271 1.4094 0.415 1.4094
1708096354.1041 0.276 0.272 1.4094 0.416 1.4094
1708096354.1123 0.276 0.274 1.4048 0.418 1.4048
1708096354.1207 0.276 0.276 1.4001 0.420 1.4001
1708096354.1277 0.276 0.277 1.4001 0.421 1.4001
1708096354.1366 0.277 0.278 1.4063 0.422 1.4063
1708096354.1438 0.277 0.280 1.4110 0.424 1.4110
1708096354.1517 0.277 0.282 1.4157 0.426 1.4157
1708096354.1599 0.277 0.284 1.4234 0.428 1.4234
1708096354.1683 0.278 0.285 1.4312 0.430 1.4312
1708096354.1763 0.278 0.287 1.4389 0.431 1.4389
1708096354.1842 0.278 0.289 1.4467 0.433 1.4467
1708096354.1926 0.278 0.290 1.4576 0.434 1.4576
1708096354.1998 0.279 0.292 1.4684 0.436 1.4684
1708096354.2083 0.279 0.294 1.4793 0.438 1.4793
1708096354.2157 0.279 0.295 1.4886 0.439 1.4886
1708096354.2246 0.279 0.297 1.5010 0.441 1.5010
1708096354.2326 0.279 0.298 1.5166 0.443 1.5166
1708096354.2399 0.279 0.300 1.5305 0.445 1.5305
1708096354.2479 0.279 0.302 1.5429 0.446 1.5429
1708096354.2563 0.279 0.303 1.5554 0.448 1.5554
1708096354.2639 0.279 0.305 1.5709 0.450 1.5709
1708096354.2723 0.279 0.307 1.5849 0.451 1.5849
1708096354.2807 0.279 0.309 1.5973 0.453 1.5973
1708096354.2878 0.279 0.310 1.6066 0.454 1.6066
1708096354.2959 0.279 0.311 1.6175 0.455 1.6174
1708096354.3043 0.279 0.313 1.6345 0.457 1.6345
1708096354.3117 0.279 0.315 1.6516 0.459 1.6516
1708096354.3211 0.279 0.317 1.6656 0.461 1.6656
1708096354.3287 0.279 0.318 1.6749 0.462 1.6749
1708096354.3357 0.278 0.319 1.6811 0.463 1.6811
1708096354.3437 0.278 0.321 1.6920 0.465 1.6920
1708096354.3520 0.278 0.323 1.6982 0.467 1.6982
1708096354.3639 0.278 0.325 1.7044 0.469 1.7044
1708096354.3687 0.278 0.325 1.7121 0.470 1.7121
1708096354.3759 0.277 0.327 1.7168 0.471 1.7168
1708096354.3837 0.277 0.328 1.7183 0.472 1.7183
1708096354.3918 0.277 0.329 1.7230 0.474 1.7230
1708096354.4011 0.277 0.331 1.7339 0.475 1.7339
1708096354.4086 0.277 0.333 1.7463 0.477 1.7463
1708096354.4166 0.276 0.334 1.7540 0.479 1.7540
1708096354.4241 0.276 0.336 1.7572 0.480 1.7572
1708096354.4322 0.276 0.337 1.7634 0.482 1.7634
1708096354.4403 0.275 0.338 1.7742 0.483 1.7742
1708096354.4486 0.275 0.340 1.7835 0.485 1.7835
1708096354.4557 0.275 0.342 1.7882 0.486 1.7882
1708096354.4637 0.274 0.343 1.7975 0.488 1.7975
1708096354.4721 0.274 0.344 1.8084 0.489 1.8084
1708096354.4807 0.274 0.346 1.8208 0.491 1.8208
1708096354.4883 0.273 0.347 1.8348 0.492 1.8348
1708096354.4967 0.273 0.349 1.8487 0.494 1.8487
1708096354.5039 0.272 0.351 1.8627 0.496 1.8627
1708096354.5118 0.272 0.352 1.8782 0.497 1.8782
1708096354.5216 0.271 0.354 1.8938 0.499 1.8938
1708096354.5281 0.271 0.356 1.9093 0.501 1.9093
1708096354.5364 0.270 0.358 1.9248 0.503 1.9248
1708096354.5446 0.270 0.359 1.9372 0.504 1.9372
1708096354.5518 0.269 0.361 1.9512 0.506 1.9512
1708096354.5606 0.268 0.362 1.9667 0.508 1.9667
1708096354.5687 0.268 0.364 1.9807 0.510 1.9807
1708096354.5759 0.267 0.366 1.9962 0.511 1.9962
1708096354.5841 0.266 0.367 2.0133 0.514 2.0133
1708096354.5923 0.265 0.369 2.0288 0.515 2.0288
1708096354.6005 0.265 0.370 2.0381 0.517 2.0381
1708096354.6082 0.264 0.371 2.0459 0.518 2.0459
1708096354.6163 0.263 0.373 2.0552 0.519 2.0552
1708096354.6246 0.262 0.374 2.0614 0.521 2.0614
1708096354.6317 0.262 0.376 2.0614 0.523 2.0614
1708096354.6399 0.261 0.377 2.0629 0.525 2.0629
1708096354.6485 0.260 0.378 2.0661 0.526 2.0661
1708096354.6562 0.260 0.380 2.0676 0.527 2.0676
1708096354.6644 0.259 0.381 2.0676 0.529 2.0676
1708096354.6725 0.258 0.382 2.0676 0.530 2.0676
1708096354.6801 0.258 0.383 2.0629 0.531 2.0629
1708096354.6882 0.257 0.384 2.0583 0.533 2.0583
1708096354.6964 0.257 0.385 2.0552 0.534 2.0552
1708096354.7045 0.256 0.387 2.0521 0.535 2.0521
1708096354.7126 0.255 0.388 2.0505 0.537 2.0505
1708096354.7207 0.254 0.390 2.0490 0.539 2.0490
1708096354.7284 0.253 0.391 2.0474 0.540 2.0474
1708096354.7361 0.253 0.392 2.0521 0.542 2.0521
1708096354.7443 0.252 0.393 2.0583 0.543 2.0583
1708096354.7521 0.252 0.395 2.0583 0.544 2.0583
1708096354.7612 0.251 0.396 2.0583 0.546 2.0583
1708096354.7683 0.250 0.397 2.0629 0.548 2.0629
1708096354.7766 0.249 0.399 2.0692 0.549 2.0692
1708096354.7860 0.249 0.400 2.0769 0.550 2.0769
1708096354.7922 0.248 0.401 2.0831 0.552 2.0831
1708096354.8001 0.247 0.403 2.0909 0.554 2.0909
1708096354.8083 0.246 0.404 2.1002 0.555 2.1002
1708096354.8167 0.245 0.406 2.1111 0.557 2.1111
1708096354.8246 0.245 0.407 2.1219 0.559 2.1219
1708096354.8326 0.244 0.409 2.1344 0.560 2.1344
1708096354.8399 0.243 0.410 2.1468 0.562 2.1468
1708096354.8479 0.242 0.412 2.1592 0.564 2.1592
1708096354.8562 0.241 0.413 2.1701 0.566 2.1701
1708096354.8637 0.240 0.415 2.1840 0.567 2.1840
1708096354.8722 0.239 0.416 2.1980 0.569 2.1980
1708096354.8806 0.238 0.417 2.2089 0.571 2.2089
1708096354.8886 0.237 0.418 2.2182 0.572 2.2182
1708096354.8965 0.236 0.419 2.2290 0.573 2.2290
1708096354.9038 0.235 0.421 2.2415 0.575 2.2415
1708096354.9118 0.234 0.422 2.2523 0.577 2.2523
1708096354.9198 0.233 0.424 2.2508 0.579 2.2508
1708096354.9284 0.232 0.425 2.2446 0.581 2.2446
1708096354.9367 0.231 0.426 2.2446 0.582 2.2446
1708096354.9437 0.230 0.427 2.2430 0.583 2.2430
1708096354.9522 0.229 0.428 2.2399 0.584 2.2399
1708096354.9597 0.228 0.429 2.2337 0.586 2.2337
1708096354.9679 0.227 0.430 2.2275 0.587 2.2275
1708096354.9766 0.227 0.432 2.2213 0.589 2.2213
1708096354.9837 0.226 0.433 2.2166 0.591 2.2166
1708096354.9918 0.225 0.434 2.2166 0.592 2.2166
1708096355.0003 0.224 0.435 2.2228 0.594 2.2228
1708096355.0077 0.223 0.436 2.2290 0.595 2.2290
1708096355.0167 0.222 0.438 2.2290 0.597 2.2290
1708096355.0240 0.221 0.439 2.2228 0.599 2.2228
1708096355.0327 0.220 0.441 2.2213 0.600 2.2213
1708096355.0405 0.219 0.442 2.2275 0.602 2.2275
1708096355.0480 0.218 0.443 2.2384 0.604 2.2384
1708096355.0566 0.217 0.444 2.2446 0.605 2.2446
