% Pose without folding and reset (log_20240224_134400.215/log_pose_abs.txt)
% 1 	Time (sec)
% 2,3 	Position x,y (m)
% 4 	heading (rad)
% 5 	Driven distance (m) - signed
% 6 	Turned angle (rad) - signed
1708778640.9445 0.000 0.000 0.0000 0.000 0.0000
1708778640.9521 0.000 0.000 0.0000 0.000 0.0000
1708778640.9593 0.000 0.000 0.0000 0.000 0.0000
1708778640.9679 0.000 0.000 0.0000 0.000 0.0000
1708778640.9754 0.000 0.000 0.0000 0.000 0.0000
1708778640.9835 0.000 0.000 0.0000 0.000 0.0000
1708778640.9911 0.000 0.000 0.0000 0.000 0.0000
1708778640.9999 0.000 0.000 0.0000 0.000 0.0000
1708778641.0079 0.000 0.000 0.0000 0.000 0.0000
1708778641.0158 0.000 0.000 0.0000 0.000 0.0000
1708778641.0241 0.000 0.000 0.0000 0.000 0.0000
1708778641.0312 0.000 0.000 0.0000 0.000 0.0000
1708778641.0399 0.000 0.000 0.0000 0.000 0.0000
1708778641.0483 0.000 0.000 0.0000 0.000 0.0000
1708778641.0553 0.000 0.000 0.0000 0.000 0.0000
1708778641.0639 0.000 0.000 0.0016 0.000 0.0016
1708778641.0720 0.001 0.000 0.0016 0.001 0.0016
1708778641.0801 0.003 0.000 -0.0016 0.003 -0.0016
1708778641.0878 0.004 -0.000 -0.0031 0.004 -0.0031
1708778641.1032 0.006 -0.000 -0.0031 0.006 -0.0031
1708778641.1063 0.008 -0.000 -0.0047 0.008 -0.0047
1708778641.1119 0.011 -0.000 -0.0016 0.011 -0.0016
1708778641.1209 0.013 -0.000 -0.0031 0.013 -0.0031
1708778641.1273 0.015 -0.000 -0.0047 0.015 -0.0047
1708778641.1358 0.018 -0.000 -0.0078 0.018 -0.0078
1708778641.1435 0.022 -0.000 -0.0093 0.022 -0.0093
1708778641.1519 0.025 -0.000 -0.0124 0.025 -0.0124
1708778641.1602 0.027 -0.000 -0.0140 0.027 -0.0140
1708778641.1683 0.031 -0.000 -0.0155 0.031 -0.0155
1708778641.1761 0.035 -0.000 -0.0186 0.035 -0.0186
1708778641.1844 0.039 -0.000 -0.0264 0.039 -0.0264
1708778641.1925 0.043 -0.000 -0.0295 0.043 -0.0295
1708778641.2001 0.047 -0.001 -0.0310 0.047 -0.0310
1708778641.2080 0.052 -0.001 -0.0341 0.052 -0.0341
1708778641.2163 0.056 -0.001 -0.0419 0.056 -0.0419
1708778641.2248 0.059 -0.001 -0.0481 0.059 -0.0481
1708778641.2321 0.064 -0.001 -0.0497 0.064 -0.0497
1708778641.2402 0.068 -0.002 -0.0543 0.068 -0.0543
1708778641.2484 0.072 -0.002 -0.0590 0.072 -0.0590
1708778641.2557 0.076 -0.002 -0.0652 0.076 -0.0652
1708778641.2651 0.080 -0.002 -0.0699 0.080 -0.0699
1708778641.2717 0.084 -0.003 -0.0745 0.084 -0.0745
1708778641.2796 0.088 -0.003 -0.0761 0.088 -0.0761
1708778641.2886 0.092 -0.003 -0.0792 0.092 -0.0792
1708778641.2963 0.096 -0.004 -0.0854 0.096 -0.0854
1708778641.3040 0.101 -0.004 -0.0916 0.101 -0.0916
1708778641.3130 0.105 -0.004 -0.0947 0.105 -0.0947
1708778641.3205 0.108 -0.005 -0.0993 0.109 -0.0993
1708778641.3285 0.113 -0.005 -0.1024 0.113 -0.1024
1708778641.3364 0.117 -0.006 -0.1071 0.117 -0.1071
1708778641.3445 0.121 -0.006 -0.1133 0.121 -0.1133
1708778641.3535 0.125 -0.006 -0.1164 0.125 -0.1164
1708778641.3619 0.128 -0.007 -0.1180 0.129 -0.1180
1708778641.3682 0.133 -0.007 -0.1211 0.133 -0.1211
1708778641.3764 0.137 -0.008 -0.1242 0.138 -0.1242
1708778641.3846 0.141 -0.008 -0.1273 0.141 -0.1273
1708778641.3925 0.144 -0.009 -0.1319 0.144 -0.1319
1708778641.4000 0.148 -0.009 -0.1350 0.149 -0.1350
1708778641.4098 0.153 -0.010 -0.1382 0.153 -0.1382
1708778641.4163 0.157 -0.011 -0.1413 0.157 -0.1413
1708778641.4241 0.160 -0.011 -0.1428 0.161 -0.1428
1708778641.4329 0.164 -0.012 -0.1444 0.164 -0.1444
1708778641.4402 0.168 -0.012 -0.1459 0.168 -0.1459
1708778641.4480 0.172 -0.013 -0.1506 0.173 -0.1506
1708778641.4564 0.176 -0.013 -0.1521 0.177 -0.1521
1708778641.4641 0.179 -0.014 -0.1537 0.180 -0.1537
1708778641.4719 0.183 -0.015 -0.1537 0.184 -0.1537
1708778641.4858 0.187 -0.015 -0.1552 0.188 -0.1552
1708778641.4881 0.191 -0.016 -0.1583 0.192 -0.1583
1708778641.4958 0.195 -0.016 -0.1614 0.196 -0.1614
1708778641.5051 0.198 -0.017 -0.1599 0.199 -0.1599
1708778641.5120 0.200 -0.017 -0.1583 0.201 -0.1583
1708778641.5202 0.204 -0.018 -0.1583 0.205 -0.1583
1708778641.5291 0.208 -0.018 -0.1583 0.209 -0.1583
1708778641.5356 0.212 -0.019 -0.1552 0.213 -0.1552
1708778641.5444 0.215 -0.020 -0.1506 0.216 -0.1506
1708778641.5530 0.218 -0.020 -0.1521 0.220 -0.1521
1708778641.5606 0.222 -0.021 -0.1521 0.223 -0.1521
1708778641.5684 0.226 -0.021 -0.1521 0.227 -0.1521
1708778641.5763 0.229 -0.022 -0.1490 0.231 -0.1490
1708778641.5839 0.233 -0.022 -0.1475 0.234 -0.1475
1708778641.5926 0.236 -0.023 -0.1459 0.238 -0.1459
1708778641.6013 0.240 -0.023 -0.1428 0.242 -0.1428
1708778641.6080 0.244 -0.024 -0.1413 0.245 -0.1413
1708778641.6158 0.247 -0.024 -0.1413 0.249 -0.1413
1708778641.6248 0.251 -0.025 -0.1382 0.252 -0.1382
1708778641.6316 0.254 -0.025 -0.1366 0.256 -0.1366
1708778641.6405 0.258 -0.026 -0.1366 0.260 -0.1366
1708778641.6485 0.262 -0.026 -0.1335 0.264 -0.1335
1708778641.6560 0.266 -0.027 -0.1304 0.267 -0.1304
1708778641.6642 0.270 -0.027 -0.1273 0.272 -0.1273
1708778641.6731 0.274 -0.028 -0.1273 0.275 -0.1273
1708778641.6797 0.277 -0.028 -0.1257 0.279 -0.1257
1708778641.6876 0.282 -0.029 -0.1226 0.283 -0.1226
1708778641.6966 0.285 -0.029 -0.1195 0.287 -0.1195
1708778641.7039 0.289 -0.030 -0.1180 0.290 -0.1180
1708778641.7118 0.293 -0.030 -0.1180 0.295 -0.1180
1708778641.7208 0.297 -0.031 -0.1133 0.299 -0.1133
1708778641.7282 0.301 -0.031 -0.1102 0.303 -0.1102
1708778641.7360 0.305 -0.032 -0.1087 0.307 -0.1087
1708778641.7452 0.309 -0.032 -0.1087 0.311 -0.1087
1708778641.7525 0.313 -0.032 -0.1056 0.315 -0.1056
1708778641.7603 0.317 -0.033 -0.1009 0.319 -0.1009
1708778641.7691 0.321 -0.033 -0.0993 0.323 -0.0993
1708778641.7756 0.325 -0.034 -0.1009 0.327 -0.1009
1708778641.7845 0.329 -0.034 -0.1009 0.331 -0.1009
1708778641.7924 0.333 -0.034 -0.0978 0.335 -0.0978
1708778641.7996 0.337 -0.035 -0.0931 0.339 -0.0931
1708778641.8085 0.341 -0.035 -0.0916 0.343 -0.0916
1708778641.8169 0.345 -0.036 -0.0916 0.347 -0.0916
1708778641.8246 0.349 -0.036 -0.0885 0.351 -0.0885
1708778641.8324 0.353 -0.036 -0.0869 0.356 -0.0869
1708778641.8402 0.357 -0.037 -0.0869 0.359 -0.0869
1708778641.8479 0.361 -0.037 -0.0869 0.363 -0.0869
1708778641.8564 0.365 -0.037 -0.0823 0.367 -0.0823
1708778641.8651 0.369 -0.038 -0.0776 0.371 -0.0776
1708778641.8717 0.373 -0.038 -0.0776 0.376 -0.0776
1708778641.8796 0.377 -0.038 -0.0776 0.379 -0.0776
1708778641.8886 0.380 -0.039 -0.0745 0.382 -0.0745
1708778641.8963 0.384 -0.039 -0.0699 0.386 -0.0699
1708778641.9036 0.389 -0.039 -0.0667 0.391 -0.0667
1708778641.9124 0.393 -0.039 -0.0683 0.395 -0.0683
1708778641.9202 0.396 -0.040 -0.0667 0.399 -0.0667
1708778641.9280 0.400 -0.040 -0.0636 0.402 -0.0636
1708778641.9369 0.404 -0.040 -0.0605 0.406 -0.0605
1708778641.9442 0.408 -0.040 -0.0605 0.411 -0.0605
1708778641.9525 0.412 -0.041 -0.0590 0.415 -0.0590
1708778641.9604 0.416 -0.041 -0.0543 0.418 -0.0543
1708778641.9681 0.420 -0.041 -0.0497 0.422 -0.0497
1708778641.9758 0.424 -0.041 -0.0481 0.426 -0.0481
1708778641.9849 0.428 -0.041 -0.0481 0.430 -0.0481
1708778641.9926 0.432 -0.042 -0.0466 0.434 -0.0466
1708778642.0000 0.436 -0.042 -0.0404 0.438 -0.0404
1708778642.0090 0.439 -0.042 -0.0357 0.442 -0.0357
1708778642.0156 0.443 -0.042 -0.0341 0.445 -0.0341
1708778642.0245 0.447 -0.042 -0.0326 0.450 -0.0326
1708778642.0324 0.451 -0.042 -0.0279 0.454 -0.0279
1708778642.0400 0.455 -0.042 -0.0217 0.458 -0.0217
1708778642.0478 0.459 -0.043 -0.0202 0.462 -0.0202
1708778642.0563 0.463 -0.043 -0.0171 0.466 -0.0171
1708778642.0640 0.467 -0.043 -0.0124 0.470 -0.0124
1708778642.0718 0.471 -0.043 -0.0062 0.474 -0.0062
1708778642.0807 0.475 -0.043 -0.0016 0.478 -0.0016
1708778642.0882 0.479 -0.043 0.0016 0.481 0.0016
1708778642.0961 0.483 -0.043 0.0078 0.485 0.0078
1708778642.1046 0.487 -0.043 0.0155 0.490 0.0155
1708778642.1123 0.491 -0.043 0.0202 0.494 0.0202
1708778642.1201 0.495 -0.042 0.0248 0.498 0.0248
1708778642.1299 0.499 -0.042 0.0326 0.502 0.0326
1708778642.1364 0.503 -0.042 0.0388 0.505 0.0388
1708778642.1444 0.507 -0.042 0.0435 0.510 0.0435
1708778642.1529 0.511 -0.042 0.0512 0.514 0.0512
1708778642.1606 0.515 -0.042 0.0590 0.517 0.0590
1708778642.1684 0.519 -0.041 0.0667 0.521 0.0667
1708778642.1761 0.523 -0.041 0.0745 0.525 0.0745
1708778642.1838 0.527 -0.041 0.0823 0.529 0.0823
1708778642.1916 0.531 -0.040 0.0900 0.533 0.0900
1708778642.2016 0.535 -0.040 0.0962 0.537 0.0962
1708778642.2083 0.538 -0.040 0.1056 0.541 0.1056
1708778642.2162 0.543 -0.039 0.1133 0.545 0.1133
1708778642.2250 0.546 -0.039 0.1195 0.549 0.1195
1708778642.2316 0.550 -0.038 0.1257 0.553 0.1257
1708778642.2404 0.554 -0.038 0.1350 0.557 0.1350
1708778642.2483 0.558 -0.037 0.1444 0.561 0.1444
1708778642.2556 0.562 -0.037 0.1537 0.565 0.1537
1708778642.2644 0.566 -0.036 0.1599 0.569 0.1599
1708778642.2722 0.570 -0.035 0.1661 0.573 0.1661
1708778642.2800 0.574 -0.035 0.1754 0.577 0.1754
1708778642.2878 0.577 -0.034 0.1816 0.580 0.1816
1708778642.2966 0.581 -0.033 0.1863 0.584 0.1863
1708778642.3039 0.585 -0.033 0.1956 0.588 0.1956
1708778642.3126 0.589 -0.032 0.2049 0.593 0.2049
1708778642.3204 0.593 -0.031 0.2111 0.596 0.2111
1708778642.3281 0.597 -0.030 0.2189 0.600 0.2189
1708778642.3358 0.601 -0.029 0.2282 0.604 0.2282
1708778642.3447 0.605 -0.028 0.2359 0.608 0.2359
1708778642.3520 0.608 -0.027 0.2406 0.612 0.2406
1708778642.3596 0.612 -0.026 0.2484 0.616 0.2484
1708778642.3689 0.616 -0.025 0.2530 0.620 0.2530
1708778642.3766 0.620 -0.024 0.2608 0.624 0.2608
1708778642.3845 0.624 -0.023 0.2670 0.628 0.2670
1708778642.3923 0.628 -0.022 0.2732 0.633 0.2732
1708778642.4006 0.632 -0.021 0.2794 0.636 0.2794
1708778642.4077 0.635 -0.020 0.2856 0.640 0.2856
1708778642.4167 0.640 -0.019 0.2903 0.644 0.2903
1708778642.4243 0.643 -0.018 0.2949 0.648 0.2949
1708778642.4322 0.647 -0.017 0.3011 0.653 0.3011
1708778642.4407 0.651 -0.015 0.3042 0.657 0.3042
1708778642.4482 0.655 -0.014 0.3105 0.661 0.3105
1708778642.4557 0.659 -0.013 0.3136 0.665 0.3136
1708778642.4646 0.662 -0.012 0.3167 0.668 0.3167
1708778642.4723 0.666 -0.010 0.3182 0.672 0.3182
1708778642.4802 0.670 -0.009 0.3229 0.677 0.3229
1708778642.4899 0.674 -0.008 0.3291 0.681 0.3291
1708778642.4965 0.678 -0.007 0.3337 0.684 0.3337
1708778642.5039 0.682 -0.005 0.3353 0.689 0.3353
1708778642.5129 0.686 -0.004 0.3368 0.693 0.3368
1708778642.5206 0.689 -0.003 0.3384 0.696 0.3384
1708778642.5284 0.693 -0.001 0.3415 0.700 0.3415
1708778642.5361 0.697 0.000 0.3462 0.705 0.3462
1708778642.5438 0.701 0.002 0.3493 0.709 0.3493
1708778642.5522 0.704 0.003 0.3524 0.712 0.3524
1708778642.5611 0.707 0.004 0.3524 0.716 0.3524
1708778642.5676 0.711 0.005 0.3524 0.720 0.3524
1708778642.5756 0.716 0.007 0.3555 0.725 0.3555
1708778642.5845 0.719 0.008 0.3601 0.729 0.3601
1708778642.5923 0.722 0.009 0.3632 0.732 0.3632
1708778642.5998 0.726 0.011 0.3648 0.735 0.3648
1708778642.6087 0.730 0.012 0.3648 0.740 0.3648
1708778642.6164 0.734 0.014 0.3679 0.744 0.3679
1708778642.6241 0.738 0.015 0.3710 0.748 0.3710
1708778642.6330 0.741 0.017 0.3741 0.752 0.3741
1708778642.6396 0.744 0.018 0.3756 0.756 0.3756
1708778642.6485 0.748 0.020 0.3756 0.760 0.3756
1708778642.6571 0.751 0.021 0.3788 0.763 0.3787
1708778642.6636 0.755 0.022 0.3834 0.767 0.3834
1708778642.6726 0.759 0.024 0.3865 0.772 0.3865
1708778642.6808 0.763 0.025 0.3865 0.775 0.3865
1708778642.6884 0.766 0.027 0.3881 0.779 0.3881
1708778642.6963 0.770 0.028 0.3912 0.783 0.3912
1708778642.7048 0.774 0.030 0.3943 0.788 0.3943
1708778642.7125 0.777 0.031 0.3958 0.791 0.3958
1708778642.7201 0.781 0.033 0.3974 0.795 0.3974
1708778642.7290 0.785 0.035 0.4005 0.799 0.4005
1708778642.7356 0.789 0.036 0.4020 0.804 0.4020
1708778642.7445 0.792 0.038 0.4051 0.807 0.4051
1708778642.7530 0.795 0.039 0.4098 0.811 0.4098
1708778642.7605 0.799 0.041 0.4129 0.814 0.4129
1708778642.7683 0.803 0.042 0.4160 0.819 0.4160
1708778642.7772 0.807 0.044 0.4191 0.823 0.4191
1708778642.7838 0.809 0.045 0.4269 0.826 0.4269
1708778642.7916 0.813 0.047 0.4315 0.830 0.4315
1708778642.8012 0.817 0.049 0.4315 0.834 0.4315
1708778642.8077 0.821 0.051 0.4362 0.839 0.4362
1708778642.8166 0.825 0.052 0.4393 0.843 0.4393
1708778642.8244 0.828 0.054 0.4439 0.846 0.4439
1708778642.8321 0.831 0.055 0.4502 0.850 0.4502
1708778642.8398 0.835 0.057 0.4502 0.854 0.4502
1708778642.8496 0.839 0.059 0.4502 0.859 0.4502
1708778642.8559 0.842 0.061 0.4548 0.862 0.4548
1708778642.8639 0.846 0.063 0.4610 0.866 0.4610
1708778642.8729 0.849 0.064 0.4641 0.870 0.4641
1708778642.8805 0.852 0.066 0.4703 0.874 0.4703
1708778642.8884 0.856 0.068 0.4765 0.878 0.4765
1708778642.8971 0.860 0.070 0.4781 0.882 0.4781
1708778642.9044 0.863 0.071 0.4828 0.886 0.4828
1708778642.9122 0.866 0.073 0.4921 0.890 0.4921
1708778642.9211 0.870 0.075 0.4998 0.894 0.4998
1708778642.9276 0.874 0.077 0.5014 0.898 0.5014
1708778642.9366 0.878 0.079 0.5060 0.902 0.5060
1708778642.9451 0.880 0.081 0.5153 0.905 0.5153
1708778642.9523 0.884 0.083 0.5262 0.910 0.5262
1708778642.9601 0.888 0.085 0.5309 0.914 0.5309
1708778642.9689 0.891 0.087 0.5324 0.918 0.5324
1708778642.9766 0.894 0.089 0.5402 0.921 0.5402
1708778642.9843 0.897 0.091 0.5495 0.925 0.5495
1708778642.9921 0.901 0.093 0.5573 0.930 0.5573
1708778643.0005 0.905 0.095 0.5604 0.934 0.5604
1708778643.0083 0.908 0.097 0.5666 0.937 0.5666
1708778643.0164 0.911 0.099 0.5759 0.941 0.5759
1708778643.0241 0.914 0.102 0.5868 0.945 0.5868
1708778643.0319 0.918 0.104 0.5914 0.949 0.5914
1708778643.0409 0.921 0.106 0.5992 0.953 0.5992
1708778643.0485 0.924 0.108 0.6085 0.957 0.6085
1708778643.0559 0.927 0.110 0.6162 0.961 0.6162
1708778643.0648 0.931 0.113 0.6209 0.965 0.6209
1708778643.0725 0.934 0.115 0.6256 0.969 0.6256
1708778643.0802 0.937 0.117 0.6333 0.973 0.6333
1708778643.0891 0.940 0.120 0.6426 0.977 0.6426
1708778643.0957 0.944 0.122 0.6504 0.981 0.6504
1708778643.1043 0.947 0.125 0.6551 0.985 0.6551
1708778643.1123 0.950 0.127 0.6597 0.989 0.6597
1708778643.1200 0.953 0.129 0.6659 0.993 0.6659
1708778643.1278 0.956 0.132 0.6737 0.997 0.6737
1708778643.1368 0.959 0.135 0.6814 1.001 0.6814
1708778643.1446 0.962 0.137 0.6845 1.005 0.6845
1708778643.1521 0.966 0.140 0.6876 1.009 0.6876
1708778643.1611 0.969 0.143 0.6954 1.014 0.6954
1708778643.1685 0.972 0.145 0.7032 1.017 0.7032
1708778643.1764 0.975 0.148 0.7094 1.021 0.7094
1708778643.1843 0.978 0.150 0.7109 1.025 0.7109
1708778643.1921 0.981 0.153 0.7156 1.029 0.7156
1708778643.2006 0.984 0.155 0.7218 1.033 0.7218
1708778643.2102 0.987 0.158 0.7265 1.037 0.7265
1708778643.2161 0.990 0.161 0.7327 1.041 0.7327
1708778643.2238 0.993 0.164 0.7373 1.045 0.7373
1708778643.2328 0.995 0.166 0.7389 1.049 0.7389
1708778643.2405 0.998 0.168 0.7435 1.052 0.7435
1708778643.2484 1.001 0.171 0.7466 1.056 0.7466
1708778643.2567 1.004 0.174 0.7497 1.061 0.7497
1708778643.2645 1.007 0.177 0.7528 1.065 0.7528
1708778643.2723 1.010 0.179 0.7575 1.068 0.7575
1708778643.2803 1.012 0.182 0.7606 1.072 0.7606
1708778643.2880 1.016 0.185 0.7622 1.076 0.7622
1708778643.2958 1.019 0.188 0.7668 1.081 0.7668
1708778643.3043 1.021 0.190 0.7715 1.084 0.7715
1708778643.3124 1.024 0.193 0.7730 1.088 0.7730
1708778643.3204 1.027 0.196 0.7746 1.092 0.7746
1708778643.3284 1.030 0.199 0.7777 1.097 0.7777
1708778643.3361 1.033 0.201 0.7792 1.100 0.7792
1708778643.3440 1.035 0.204 0.7823 1.104 0.7823
1708778643.3526 1.038 0.207 0.7823 1.108 0.7823
1708778643.3602 1.041 0.210 0.7823 1.112 0.7823
1708778643.3682 1.044 0.213 0.7854 1.117 0.7854
1708778643.3772 1.047 0.215 0.7885 1.120 0.7885
1708778643.3839 1.049 0.218 0.7901 1.124 0.7901
1708778643.3917 1.052 0.221 0.7885 1.128 0.7885
1708778643.4015 1.055 0.224 0.7901 1.132 0.7901
1708778643.4081 1.058 0.226 0.7917 1.136 0.7917
1708778643.4161 1.061 0.229 0.7948 1.140 0.7948
1708778643.4250 1.063 0.232 0.7963 1.144 0.7963
1708778643.4317 1.066 0.235 0.7963 1.148 0.7963
1708778643.4404 1.069 0.238 0.7979 1.152 0.7979
1708778643.4484 1.072 0.241 0.7994 1.156 0.7994
1708778643.4558 1.074 0.243 0.7994 1.159 0.7994
1708778643.4639 1.077 0.246 0.7994 1.163 0.7994
1708778643.4731 1.080 0.249 0.8010 1.167 0.8010
1708778643.4798 1.083 0.252 0.8025 1.171 0.8025
1708778643.4878 1.086 0.255 0.8025 1.176 0.8025
1708778643.4970 1.088 0.258 0.8025 1.179 0.8025
1708778643.5046 1.091 0.260 0.8025 1.183 0.8025
1708778643.5118 1.094 0.263 0.8025 1.187 0.8025
1708778643.5209 1.097 0.266 0.8025 1.191 0.8025
1708778643.5286 1.099 0.269 0.8056 1.195 0.8056
1708778643.5366 1.102 0.272 0.8056 1.199 0.8056
1708778643.5446 1.105 0.275 0.8025 1.203 0.8025
1708778643.5519 1.108 0.278 0.8010 1.207 0.8010
1708778643.5598 1.110 0.280 0.8025 1.211 0.8025
1708778643.5697 1.112 0.283 0.8056 1.214 0.8056
1708778643.5764 1.115 0.286 0.8056 1.219 0.8056
1708778643.5843 1.118 0.289 0.8010 1.223 0.8010
1708778643.5922 1.121 0.292 0.7979 1.227 0.7979
1708778643.6006 1.123 0.294 0.8010 1.230 0.8010
1708778643.6085 1.126 0.297 0.8056 1.234 0.8056
1708778643.6162 1.129 0.300 0.8072 1.239 0.8072
1708778643.6239 1.132 0.303 0.8025 1.243 0.8025
1708778643.6322 1.134 0.306 0.8010 1.246 0.8010
1708778643.6401 1.137 0.308 0.8041 1.250 0.8041
1708778643.6478 1.140 0.312 0.8103 1.254 0.8103
1708778643.6565 1.143 0.315 0.8118 1.259 0.8118
1708778643.6643 1.146 0.317 0.8118 1.262 0.8118
1708778643.6721 1.148 0.320 0.8149 1.266 0.8149
1708778643.6799 1.151 0.323 0.8165 1.270 0.8165
1708778643.6889 1.154 0.326 0.8180 1.274 0.8180
1708778643.6966 1.156 0.329 0.8196 1.278 0.8196
1708778643.7041 1.159 0.332 0.8242 1.282 0.8242
1708778643.7130 1.162 0.335 0.8258 1.286 0.8258
1708778643.7196 1.165 0.338 0.8274 1.290 0.8274
1708778643.7286 1.168 0.341 0.8305 1.294 0.8305
1708778643.7369 1.170 0.344 0.8336 1.298 0.8336
1708778643.7446 1.173 0.347 0.8382 1.302 0.8382
1708778643.7521 1.176 0.350 0.8413 1.307 0.8413
1708778643.7612 1.178 0.353 0.8429 1.310 0.8429
1708778643.7681 1.180 0.355 0.8491 1.314 0.8491
1708778643.7763 1.183 0.358 0.8568 1.318 0.8568
1708778643.7842 1.186 0.362 0.8584 1.322 0.8584
1708778643.7920 1.189 0.365 0.8600 1.326 0.8600
1708778643.8004 1.191 0.368 0.8677 1.330 0.8677
1708778643.8084 1.194 0.371 0.8739 1.334 0.8739
1708778643.8161 1.196 0.374 0.8770 1.338 0.8770
1708778643.8241 1.199 0.377 0.8801 1.342 0.8801
1708778643.8330 1.202 0.380 0.8863 1.346 0.8863
1708778643.8406 1.204 0.383 0.8957 1.350 0.8957
1708778643.8485 1.207 0.386 0.9019 1.354 0.9019
1708778643.8566 1.209 0.390 0.9034 1.359 0.9034
1708778643.8636 1.212 0.393 0.9096 1.362 0.9096
1708778643.8721 1.214 0.396 0.9174 1.366 0.9174
1708778643.8803 1.216 0.398 0.9251 1.370 0.9251
1708778643.8884 1.219 0.402 0.9314 1.374 0.9314
1708778643.8964 1.221 0.406 0.9360 1.378 0.9360
1708778643.9050 1.224 0.409 0.9407 1.382 0.9407
1708778643.9117 1.226 0.412 0.9515 1.386 0.9515
1708778643.9206 1.228 0.415 0.9624 1.390 0.9624
1708778643.9295 1.230 0.418 0.9655 1.394 0.9655
1708778643.9362 1.232 0.421 0.9717 1.398 0.9717
1708778643.9438 1.235 0.425 0.9810 1.402 0.9810
1708778643.9524 1.237 0.428 0.9903 1.405 0.9903
1708778643.9602 1.239 0.431 1.0012 1.409 1.0012
1708778643.9681 1.241 0.435 1.0105 1.414 1.0105
1708778643.9769 1.243 0.438 1.0198 1.418 1.0198
1708778643.9845 1.245 0.441 1.0323 1.421 1.0323
1708778643.9924 1.247 0.445 1.0431 1.425 1.0431
1708778644.0015 1.249 0.449 1.0524 1.430 1.0524
1708778644.0082 1.251 0.452 1.0633 1.434 1.0633
1708778644.0163 1.253 0.455 1.0757 1.438 1.0757
1708778644.0242 1.255 0.459 1.0881 1.441 1.0881
1708778644.0318 1.257 0.462 1.0990 1.445 1.0990
1708778644.0397 1.259 0.466 1.1083 1.450 1.1083
1708778644.0486 1.260 0.469 1.1207 1.453 1.1207
1708778644.0563 1.262 0.473 1.1363 1.457 1.1363
1708778644.0642 1.264 0.477 1.1487 1.462 1.1487
1708778644.0731 1.266 0.481 1.1580 1.466 1.1580
1708778644.0796 1.267 0.484 1.1704 1.470 1.1704
1708778644.0876 1.269 0.488 1.1844 1.474 1.1844
1708778644.0966 1.270 0.491 1.1952 1.477 1.1952
1708778644.1040 1.271 0.495 1.2077 1.481 1.2077
1708778644.1119 1.273 0.498 1.2201 1.485 1.2201
1708778644.1207 1.274 0.502 1.2325 1.489 1.2325
1708778644.1285 1.275 0.506 1.2449 1.493 1.2449
1708778644.1357 1.277 0.510 1.2589 1.497 1.2589
1708778644.1446 1.278 0.514 1.2682 1.501 1.2682
1708778644.1524 1.279 0.517 1.2791 1.504 1.2791
1708778644.1601 1.280 0.521 1.2946 1.508 1.2946
